session,strategy_net,strategy_gross,buy_hold,open_to_close,has_trade
2021-10-07,0.0,0.0,0.0,0.0004685777287762871,0
2021-10-08,0.0,0.0,-0.004986638014160993,-0.008020215337288361,0
2021-10-11,0.0,0.0,-0.007669730867205793,-0.0033094165415206156,0
2021-10-12,0.0,0.0,-0.003487820530706731,-0.007613648994109212,0
2021-10-13,0.0,0.0,0.008008064064512599,0.001362966259631282,0
2021-10-14,0.0,0.0,0.018416666666666748,0.008083807638373353,0
2021-10-15,0.0,0.0,0.006300630063006407,0.002881374361204836,0
2021-10-18,0.0,0.0,0.010055835637230892,0.013710181986344105,0
2021-10-19,0.0,0.0,0.007567422514423772,0.004602006688963378,0
2021-10-20,0.0,0.0,-0.0013050310277785693,-0.002553598978560334,0
2021-10-21,0.0,0.0,0.006106992372926445,0.008311952106050846,0
2021-10-22,0.0,0.0,-0.008402470379303861,-0.005000265971594198,0
2021-10-25,0.0,0.0,0.010237904303662004,0.006363830013845995,0
2021-10-26,0.0,0.0,0.0031487312465270367,-0.002919285695500151,0
2021-10-27,0.0,0.0,0.002321164802701059,0.0011064861162337625,0
2021-10-28,0.0,0.0,0.01110526315789473,0.005943186280926938,0
2021-10-29,0.0,0.0,0.004919056790380516,0.013252506167007905,0
2021-11-01,0.0,0.0,0.0034187148739996953,0.002522247516556275,0
2021-11-02,0.0,0.0,0.004181400511060085,0.00581695966907958,0
2021-11-03,0.0,0.0,0.010615602107698185,0.009318444358875633,0
2021-11-04,0.0,0.0,0.01281855638638807,0.009480835530318421,0
2021-11-05,0.0,0.0,0.0009542463964642423,-0.0033746625337466307,0
2021-11-08,0.0,0.0,-0.0013547415955845743,-0.0012795744787615915,0
2021-11-09,0.001778281508502988,0.001978281508502988,-0.006883384414409943,-0.009620202425092761,1
2021-11-10,0.004271770729510105,0.004471770729510105,-0.014696954366083204,-0.0075419777307820235,1
2021-11-11,0.0,0.0,0.0027727144360862876,-0.005043686476297271,0
2021-11-12,0.0,0.0,0.010522542819836778,0.007478877913061233,0
2021-11-15,0.0,0.0,-0.00022802128198629035,-0.003283574549771462,0
2021-11-16,0.0,0.0,0.007120954866830509,0.009038744731630466,0
2021-11-17,0.0,0.0,0.0005284082331034057,-0.0003016970458831203,0
2021-11-18,0.0,0.0,0.010361391243115525,0.005053411052460266,0
2021-11-19,0.0,0.0,0.005575606720597426,0.0013880970676449778,0
2021-11-22,-0.004475150195406474,-0.004275150195406474,-0.011609198247481411,-0.015459723352318933,1
2021-11-23,0.01068556765697013,0.01088556765697013,-0.004557976458802848,-0.0015824772047926539,1
2021-11-24,0.0,0.0,0.003220287813223255,0.009697921150583655,0
2021-11-26,0.0004999896874400058,0.0006999896874400058,-0.01895877219380082,-0.01239554669157561,1
2021-11-29,0.0,0.0,0.021702453987730186,0.009598625880926637,0
2021-11-30,0.0018012565577143259,0.002001256557714326,-0.014686381946008131,-0.01243793570389684,1
2021-12-01,-0.013327761804374028,-0.013127761804374027,-0.017012848509471268,-0.028020488098824847,1
2021-12-02,0.0,0.0,0.007207067575945469,0.010653188180404394,0
2021-12-03,-0.004232046173716774,-0.0040320461737167745,-0.017388628144956564,-0.02090414249571948,1
2021-12-06,0.0,0.0,0.008012945997442067,0.006699163256262519,0
2021-12-07,0.0,0.0,0.030113930605903727,0.012212808182581414,0
2021-12-08,0.0,0.0,0.004474272930648837,0.0036165456965617793,0
2021-12-09,0.0,0.0,-0.014714346487825658,-0.011597841094514894,0
2021-12-10,0.0,0.0,0.0108703934168084,0.0035046139882002336,0
2021-12-13,0.0,0.0,-0.014446873194140841,-0.014422110552763878,0
2021-12-14,0.0,0.0,-0.010350277876918335,0.0023237800154918276,0
2021-12-15,0.0,0.0,0.02279752704791349,0.023483012837036688,0
2021-12-16,-0.00942831731451368,-0.009228317314513679,-0.025714645510641065,-0.028137875590393047,1
2021-12-17,0.0,0.0,-0.004989142798055957,0.0043043852555240125,0
2021-12-20,0.0,0.0,-0.01096360188095924,0.0029639192233215095,0
2021-12-21,0.0,0.0,0.022380414510493996,0.013435750553313364,0
2021-12-22,0.0,0.0,0.012178515454381866,0.012959296495333117,0
2021-12-23,0.0,0.0,0.007539027795405495,0.006619157515660223,0
2021-12-27,0.0,0.0,0.0165272599012396,0.013132454488386847,0
2021-12-28,0.0,0.0,-0.0046346782988004875,-0.006899109792284808,0
2021-12-29,0.0,0.0,-0.00014939867035179688,-0.0004978220286246948,0
2021-12-30,0.0,0.0,-0.002988419872992143,-0.002441880746517744,0
2021-12-31,0.0,0.0,-0.006244536030972858,0.0,0
2022-01-03,0.0,0.0,0.009626743747643607,0.006590652800400942,0
2022-01-04,0.001618374583177018,0.0018183745831770182,-0.012970523800039824,-0.014344669848846414,1
2022-01-05,-0.00994468619473734,-0.00974468619473734,-0.030721113829545788,-0.0264731215483609,1
2022-01-06,0.0,0.0,-0.0007025943948582025,0.004183881596150796,0
2022-01-07,0.0,0.0,-0.01083276912660791,-0.01085852667760323,0
2022-01-10,0.0,0.0,0.0006581372084453196,0.014113441118403625,0
2022-01-11,0.0,0.0,0.015021967325247854,0.017042084590950468,0
2022-01-12,0.0,0.0,0.003965579804053876,-0.0028574370591565312,0
2022-01-13,-0.010023050425240454,-0.009823050425240454,-0.025016135278172147,-0.028577307919849693,1
2022-01-14,0.0,0.0,0.006222528199968158,0.013170874770042973,0
2022-01-18,0.0,0.0,-0.024894081734691098,-0.009330552882044763,0
2022-01-19,0.0,0.0,-0.010983672918634446,-0.015235792019346883,0
2022-01-20,-0.0008692285249938479,-0.0006692285249938479,-0.012988430473695689,-0.021823196949619983,1
2022-01-21,0.0,0.0,-0.027728629879464894,-0.02164297437894691,0
2022-01-24,0.046480830308595934,0.04668083030859593,0.004577895305524882,0.02137870224483618,1
2022-01-25,0.0,0.0,-0.023181432210585884,-0.004499956731185306,0
2022-01-26,0.0027549050235688767,0.0029549050235688767,-0.0015647184955521753,-0.023632087501062715,1
2022-01-27,0.0,0.0,-0.010070522680442173,-0.02375500858614754,0
2022-01-28,0.0,0.0,0.031369099970683045,0.025566277002011528,0
2022-01-31,0.0,0.0,0.031978396816372934,0.027887882219705507,0
2022-02-01,0.0,0.0,0.006803470596336458,0.0029909722031664643,0
2022-02-02,0.0,0.0,0.0081254103742614,-0.003434660320207672,0
2022-02-03,0.0,0.0,-0.04054384108116904,-0.01389005104175367,0
2022-02-04,0.0,0.0,0.012614905953896027,0.011099186624491608,0
2022-02-07,0.0,0.0,-0.008044468031619179,-0.00973174948413369,0
2022-02-08,0.0,0.0,0.011235322276349491,0.014577918408859913,0
2022-02-09,0.0,0.0,0.02119068834929827,0.008164723993842271,0
2022-02-10,0.0,0.0,-0.022632454394240997,-0.0030318202047173726,0
2022-02-11,-0.005000704659358667,-0.004800704659358668,-0.03172167508300083,-0.03172167508300083,1
2022-02-14,0.0,0.0,0.0012389788509190591,0.0028860861785333647,0
2022-02-15,0.0,0.0,0.024864024864024836,0.009124139298971379,0
2022-02-16,0.0,0.0,-0.00025271670457405193,0.006274376801763681,0
2022-02-17,0.0,0.0,-0.029743849005729794,-0.020666780064636847,0
2022-02-18,0.0,0.0,-0.011405413229121475,-0.014145088190294808,0
2022-02-22,0.0,0.0,-0.010043629761939621,-0.0012112617802594317,0
2022-02-23,-0.007461039401729174,-0.007261039401729175,-0.02561523899668705,-0.03486464315012294,1
2022-02-24,0.0,0.0,0.03360451702993128,0.0679023961861751,0
2022-02-25,0.0,0.0,0.015507063349877948,0.013067299522428133,0
2022-02-28,0.0,0.0,0.002978858778957205,0.012525181746518399,0
2022-03-01,0.0,0.0,-0.015311418685121092,-0.012321041214750528,0
2022-03-02,0.0,0.0,0.016779407888957376,0.012067156348373631,0
2022-03-03,0.0,0.0,-0.014284891423305246,-0.021918669448175443,0
2022-03-04,0.0,0.0,-0.014491906737567839,-0.007474105461393488,0
2022-03-07,-0.008054044428356688,-0.007854044428356688,-0.036881114734657605,-0.03685256011147675,1
2022-03-08,0.0,0.0,-0.004648156128793879,-0.0021601604690634213,0
2022-03-09,0.0,0.0,0.03599814442554505,0.009766390354182475,0
2022-03-10,0.0,0.0,-0.0111048090987792,0.0013602563327488326,0
2022-03-11,0.0012608952322987533,0.0014608952322987534,-0.020738370513478488,-0.029672170375688034,1
2022-03-14,0.0,0.0,-0.019204685573366076,-0.015349859189799697,0
2022-03-15,0.0,0.0,0.0313668793412325,0.02265644477686357,0
2022-03-16,0.0,0.0,0.03708669815633092,0.024535629346418952,0
2022-03-17,0.0,0.0,0.012106252938410833,0.017938942577651718,0
2022-03-18,0.0,0.0,0.020468006038787623,0.025529555931609993,0
2022-03-21,0.0,0.0,-0.004011493925858534,-0.00034266133637927965,0
2022-03-22,0.0,0.0,0.019652650822669093,0.018169371630679665,0
2022-03-23,0.0,0.0,-0.014371358135365275,-0.006158018135080989,0
2022-03-24,0.0,0.0,0.02222664354944137,0.01653476540418297,0
2022-03-25,0.0,0.0,-0.0008341443069649346,-0.000667426791623682,0
2022-03-28,0.0,0.0,0.015472380687352238,0.015500640062336757,0
2022-03-29,0.0,0.0,0.01720972294538381,0.006207644348061869,0
2022-03-30,0.0,0.0,-0.011045556184164473,-0.0059169995260984765,0
2022-03-31,0.0,0.0,-0.01239478057152188,-0.01279817013397233,0
2022-04-01,0.0,0.0,-0.0019032382633640266,-0.0026460130646894786,0
2022-04-04,0.0,0.0,0.020588641702362853,0.018168784979736063,0
2022-04-05,0.0,0.0,-0.0222041700514487,-0.018243114651586345,0
2022-04-06,0.0,0.0,-0.02171143727499314,-0.006720089976100074,0
2022-04-07,0.0,0.0,0.0023778520070203424,0.005280490574608221,0
2022-04-08,0.0,0.0,-0.01397910194860219,-0.008997502270663094,0
2022-04-11,0.0,0.0,-0.023657453816411267,-0.011368579797569667,0
2022-04-12,0.0,0.0,-0.004224236557247241,-0.018249652938454375,0
2022-04-13,0.0,0.0,0.020326999558108794,0.019276044732195352,0
2022-04-14,0.0,0.0,-0.022867042009527938,-0.02312088673363355,0
2022-04-18,0.0,0.0,0.0007682534054309631,0.003972135764043205,0
2022-04-19,0.0,0.0,0.022350822285866156,0.02434695145401311,0
2022-04-20,0.0,0.0,-0.014584416334546324,-0.01694085107608978,0
2022-04-21,-0.008633327910043032,-0.008433327910043031,-0.020691070015532942,-0.031982386511776206,1
2022-04-22,-0.0009667153517345593,-0.0007667153517345593,-0.026185844680532644,-0.026651909903981363,1
2022-04-25,0.0,0.0,0.012845728334357709,0.01807061440088953,0
2022-04-26,-0.005301080030017746,-0.005101080030017746,-0.037745008799077606,-0.031544874339634266,1
2022-04-27,0.0,0.0,-0.001198208992873817,-0.0015130500567394067,0
2022-04-28,0.0,0.0,0.03551584796060103,0.019139350629175045,0
2022-04-29,-0.00413307984234803,-0.003933079842348031,-0.04499862809060695,-0.03228297806611058,1
2022-05-02,0.0,0.0,0.016695929768555606,0.01806092766039069,0
2022-05-03,0.0,0.0,0.0010675709620697749,0.0010047095761380742,0
2022-05-04,0.0,0.0,0.0338121824226838,0.03222573674485618,0
2022-05-05,-0.00769788655214767,-0.00749788655214767,-0.05036407766990303,-0.03742657686748474,1
2022-05-06,0.0,0.0,-0.011980830670926479,-0.0054671168998230435,0
2022-05-09,0.0,0.0,-0.03912691996766382,-0.020858046658758567,0
2022-05-10,0.0,0.0,0.012148746424364809,-0.0123148665068471,0
2022-05-11,0.0,0.0,-0.029658199228620896,-0.02231604342581428,0
2022-05-12,0.0,0.0,-0.0023643092105263275,0.012871803791963732,0
2022-05-13,0.0,0.0,0.037059934741542344,0.021033409982415652,0
2022-05-16,0.0,0.0,-0.011591706961648018,-0.0056971514242878385,0
2022-05-17,0.0,0.0,0.025901353705937602,0.005649531942847785,0
2022-05-18,-0.0005797685411749407,-0.00037976854117494074,-0.04909037462847443,-0.034489619950918704,1
2022-05-19,0.0,0.0,-0.005358246891529861,0.0010024542846278628,0
2022-05-20,0.0209923716776794,0.0211923716776794,-0.003107949444022262,-0.015180977723194489,1
2022-05-23,0.0,0.0,0.016627407510045655,0.012873166522864521,0
2022-05-24,0.0,0.0,-0.021262096224614946,-0.0030715835140997516,0
2022-05-25,0.0,0.0,0.013995265283386571,0.019425291379370657,0
2022-05-26,0.0,0.0,0.027707203186156715,0.030608731579672144,0
2022-05-27,0.0,0.0,0.03263956168776949,0.02168308322866408,0
2022-05-31,0.0,0.0,-0.0026528631510839285,-0.0025560552625619737,0
2022-06-01,0.0,0.0,-0.007395873880887471,-0.014397526331046517,0
2022-06-02,0.0,0.0,0.027385620915032716,0.03126127603739537,0
2022-06-03,0.0,0.0,-0.026019466887206577,-0.009157686955958866,0
2022-06-06,0.0,0.0,0.0033311561071196483,-0.011359613837489846,0
2022-06-07,0.0,0.0,0.008625740511685409,0.019946677199565555,0
2022-06-08,0.0,0.0,-0.00719656630199772,-0.0045623685487785615,0
2022-06-09,0.0,0.0,-0.026784553374073594,-0.021280768853584542,0
2022-06-10,0.0,0.0,-0.03527054108216432,-0.01638004427038997,0
2022-06-13,0.0,0.0,-0.04649633014817878,-0.015513851653261801,0
2022-06-14,0.0,0.0,0.001815475109836262,-0.006302672333069248,0
2022-06-15,0.0,0.0,0.02497191113044095,0.012114596567829095,0
2022-06-16,0.0,0.0,-0.04034653465346538,-0.015240030480060951,0
2022-06-17,0.0,0.0,0.012159622683223459,0.009221838489235079,0
2022-06-21,0.0,0.0,0.02326258691616001,0.0083587443946187,0
2022-06-22,0.0,0.0,-0.0014586594563824606,0.007719373833118048,0
2022-06-23,0.0,0.0,0.014892934763245158,0.00579075597613099,0
2022-06-24,0.0,0.0,0.03426364753378963,0.02387572113713765,0
2022-06-27,0.0,0.0,-0.007331726689521867,-0.011993243243243246,0
2022-06-28,-0.0020903052554302136,-0.0018903052554302135,-0.030466746452384896,-0.03228668941979518,1
2022-06-29,0.0,0.0,0.0009169782041333896,0.0014114326040932657,0
2022-06-30,0.0,0.0,-0.01240310077519391,-0.0016740872662511785,0
2022-07-01,0.0,0.0,0.006600542314828095,0.011399892453844762,0
2022-07-05,0.0,0.0,0.0171197674830752,0.0310804498580719,0
2022-07-06,0.0,0.0,0.006412043490382047,0.0050461110144421895,0
2022-07-07,0.0,0.0,0.021398891966758926,0.01847184338638952,0
2022-07-08,0.0,0.0,0.0012543223269374515,0.011195562859490638,0
2022-07-11,0.0,0.0,-0.021364482816996766,-0.013111171810980538,0
2022-07-12,0.0,0.0,-0.009687240520343199,-0.014053458252962225,0
2022-07-13,0.0,0.0,-0.002061207378423857,0.017997148966500287,0
2022-07-14,0.0,0.0,0.003570803430771985,0.013003993073960274,0
2022-07-15,0.0,0.0,0.018139323961349207,0.0073861871397506995,0
2022-07-18,0.0,0.0,-0.008462671737417438,-0.018051031487513747,0
2022-07-19,0.0,0.0,0.030753282653766423,0.01770666302753221,0
2022-07-20,0.0,0.0,0.015856520281595676,0.014226893850634248,0
2022-07-21,0.0,0.0,0.014355014355014406,0.012784184514003316,0
2022-07-22,0.0,0.0,-0.01753529832780265,-0.014489442939659924,0
2022-07-25,0.0,0.0,-0.005695552832875372,-0.005794318257069109,0
2022-07-26,0.0,0.0,-0.01964898258234249,-0.013934947911432571,0
2022-07-27,0.0,0.0,0.04225974114209996,0.025983146067415586,0
2022-07-28,0.0,0.0,0.009778038525471766,0.010502625656414244,0
2022-07-29,0.0,0.0,0.018236983957909514,0.013086693321772147,0
2022-08-01,0.0,0.0,-0.00060229506118048,0.005164992826398818,0
2022-08-02,0.0,0.0,-0.00298157135153998,0.004505944011248708,0
2022-08-03,0.0,0.0,0.02723252632583595,0.021642145230184928,0
2022-08-04,0.0,0.0,0.0046765152219021555,0.004427655819425835,0
2022-08-05,0.0,0.0,-0.008168927250308156,0.008020301387888118,0
2022-08-08,0.0,0.0,-0.003232323232323253,-0.006135919923146105,0
2022-08-09,0.0,0.0,-0.011318636774656166,-0.0053016281331367265,0
2022-08-10,0.0,0.0,0.02791093730288896,0.004128284913275326,0
2022-08-11,0.0,0.0,-0.0056760654128187316,-0.012869130838701892,0
2022-08-12,0.0,0.0,0.019470501110836924,0.01292251092205099,0
2022-08-15,0.0,0.0,0.00808135839462465,0.011049723756906049,0
2022-08-16,0.0,0.0,-0.0023419203747073736,0.0006775985905949078,0
2022-08-17,0.0,0.0,-0.011406043096183871,-0.0017625429239979118,0
2022-08-18,0.0,0.0,0.0024049438339066587,0.0026793326026062214,0
2022-08-19,0.0,0.0,-0.019497084548104837,-0.01014808228837727,0
2022-08-22,0.0,0.0,-0.0263272006442421,-0.01299843014128721,0
2022-08-23,0.0,0.0,-0.0008270772362896084,-6.366993505657614e-05,0
2022-08-24,0.0,0.0,0.002897166507481508,0.004464143362775452,0
2022-08-25,0.0,0.0,0.0176819783498936,0.011836000378752098,0
2022-08-26,-0.020778061387988343,-0.020578061387988344,-0.04098820887142052,-0.04008992131884592,1
2022-08-29,0.0,0.0,-0.009855581576892924,-0.000689383494189455,0
2022-08-30,0.0053382103826924215,0.005538210382692421,-0.01113629644229841,-0.016595883698138025,1
2022-08-31,0.0,0.0,-0.005813567204836834,-0.015526826540346761,0
2022-09-01,0.0,0.0,0.0004343903498513768,0.009032084119708683,0
2022-09-02,-0.0015378733974115376,-0.0013378733974115375,-0.01412825651302596,-0.02371502282198834,1
2022-09-06,0.0,0.0,-0.007182301724430018,-0.008827707501860238,0
2022-09-07,0.0,0.0,0.020201330830916353,0.01849833072153717,0
2022-09-08,0.0,0.0,0.0051844666688964924,0.012363146370220512,0
2022-09-09,0.0,0.0,0.021862105683482014,0.013935211174586515,0
2022-09-12,0.0,0.0,0.011885766387704111,0.007260940032414842,0
2022-09-13,-0.004949297441073441,-0.004749297441073441,-0.05483684108901343,-0.026838966202783365,1
2022-09-14,0.0,0.0,0.007933265236635956,0.003950960609092169,0
2022-09-15,0.0,0.0,-0.016653717528628653,-0.010099636141054802,0
2022-09-16,0.0,0.0,-0.006114737203710141,0.005560962046433859,0
2022-09-19,0.0,0.0,0.0059795382275682485,0.017301642782243887,0
2022-09-20,0.0,0.0,-0.007971138979556702,0.0008319179174320901,0
2022-09-21,0.0,0.0,-0.017906002147334954,-0.020822542214855355,0
2022-09-22,0.0,0.0,-0.012307800818169068,-0.0068439716312056476,0
2022-09-23,0.0,0.0,-0.01628164387474562,-0.007350027022158256,0
2022-09-26,0.0,0.0,-0.004137780842800587,-0.002399738210376978,0
2022-09-27,0.0,0.0,0.00040091846776246776,-0.011986609553291783,0
2022-09-28,0.0,0.0,0.0198921597201982,0.019966479632733458,0
2022-09-29,0.0,0.0,-0.028827605915553334,-0.014463858478938607,0
2022-09-30,0.0,0.0,-0.01695663368521727,-0.013909899273143123,0
2022-10-03,0.0,0.0,0.02346030083065176,0.01657561229419846,0
2022-10-04,0.0,0.0,0.03144079260044608,0.011254883687587425,0
2022-10-05,0.0,0.0,-0.0005316697976109896,0.013295960902688142,0
2022-10-06,0.0,0.0,-0.007872898787148142,-0.004271070615034178,0
2022-10-07,0.0,0.0,-0.03810408921933073,-0.021525707221292878,0
2022-10-10,0.0,0.0,-0.009996283909327386,-0.010731526178982542,0
2022-10-11,0.0,0.0,-0.013738223039675757,-0.007366830374008315,0
2022-10-12,0.0,0.0,-0.00034253092293046183,-0.002809415337888921,0
2022-10-13,0.0,0.0,0.02345237188761118,0.053535036839630123,0
2022-10-14,-0.009950942682489439,-0.009750942682489439,-0.030057287404210986,-0.03856932153392323,1
2022-10-17,0.0,0.0,0.03302140062897907,0.009406385849198173,0
2022-10-18,0.0,0.0,0.007907926489697292,-0.018262033052471538,0
2022-10-19,0.0,0.0,-0.003646677471636939,0.0020746119364278837,0
2022-10-20,0.0,0.0,-0.0051018521941661454,-0.0017434527783959375,0
2022-10-21,0.0,0.0,0.023447660807847992,0.027800582132994966,0
2022-10-24,0.0,0.0,0.011001379710986692,0.01001124451376545,0
2022-10-25,0.0,0.0,0.020685940025139127,0.01717905586772117,0
2022-10-26,0.0,0.0,-0.022096337215439243,-0.0019033254327370797,0
2022-10-27,0.0,0.0,-0.018206023099341606,-0.014162361356985453,0
2022-10-28,0.0,0.0,0.030600652325283084,0.033023546266025106,0
2022-10-31,0.0,0.0,-0.011627906976744318,-0.003477699698838488,0
2022-11-01,0.0,0.0,-0.01021766504767041,-0.02268246327643475,0
2022-11-02,-0.006762222514950755,-0.006562222514950755,-0.03427719821162445,-0.034171877272066276,1
2022-11-03,0.0,0.0,-0.01953477868112019,-0.009581384738222787,0
2022-11-04,0.0,0.0,0.016085070444162852,-0.0032011448800510767,0
2022-11-07,0.0,0.0,0.010994408342148931,0.006923800564440086,0
2022-11-08,0.0,0.0,0.007287267835121014,0.0014862153526047361,0
2022-11-09,0.0,0.0,-0.02307635230392535,-0.01658201374365098,0
2022-11-10,0.0,0.0,0.07378854625550657,0.0244194050940183,0
2022-11-11,0.0,0.0,0.018426171529619673,0.019110985277463133,0
2022-11-14,0.0,0.0,-0.008751215446589744,-0.0014692506821522011,0
2022-11-15,0.0,0.0,0.013838284753363128,-0.009650593751069358,0
2022-11-16,0.0,0.0,-0.01364940046304286,-0.006785204774000464,0
2022-11-17,0.0,0.0,-0.002207118834080757,0.01399174024494454,0
2022-11-18,0.0,0.0,3.511112671605865e-05,-0.010663795199555404,0
2022-11-21,0.0,0.0,-0.01028719893265928,-0.005328158080451617,0
2022-11-22,0.0,0.0,0.014402781226719563,0.011711010472686079,0
2022-11-23,0.0,0.0,0.010036719706242314,0.009966080358079443,0
2022-11-25,0.0,0.0,-0.006578491794197006,-0.0009401441554370837,0
2022-11-28,0.0,0.0,-0.014673079604070938,-0.007686907686907718,0
2022-11-29,0.0,0.0,-0.0075695942838951424,-0.008376334205131841,0
2022-11-30,0.0,0.0,0.0455857718216488,0.04458054408203971,0
2022-12-01,0.0,0.0,0.0012271611671665905,0.00010214852395384888,0
2022-12-02,0.0,0.0,-0.00398338553724642,0.01389755319886321,0
2022-12-05,0.0,0.0,-0.016783455819518123,-0.009435911564157351,0
2022-12-06,0.002527561215200902,0.002727561215200902,-0.020720344875538754,-0.02017531654375959,1
2022-12-07,0.0,0.0,-0.00408264697529126,0.0002139266231679926,0
2022-12-08,0.0,0.0,0.011834741382383607,0.006881628888652402,0
2022-12-09,0.0,0.0,-0.006376607363043907,-0.002722676001555735,0
2022-12-12,0.0,0.0,0.012551411147354807,0.011905605555948995,0
2022-12-13,-0.006938874198685018,-0.006738874198685019,0.010750052524686637,-0.02696780718017866,1
2022-12-14,0.0,0.0,-0.007413822968993511,-0.005346294046172595,0
2022-12-15,0.0038091575046949933,0.0040091575046949934,-0.033576489476807136,-0.019268232210533753,1
2022-12-16,0.0,0.0,-0.009534472173065023,-0.007060101375814587,0
2022-12-19,0.0,0.0,-0.016408386508659945,-0.015043633840873372,0
2022-12-20,0.0,0.0,-0.0007784986098238189,0.003649091450700137,0
2022-12-21,0.0,0.0,0.014506195740891847,0.010735402808573546,0
2022-12-22,0.010363689726698077,0.010563689726698078,-0.024465167306637392,-0.013388564242917345,1
2022-12-23,0.0,0.0,0.0022492127755286973,0.007119448525257033,0
2022-12-27,0.0,0.0,-0.014138240574506411,-0.011846742145909972,0
2022-12-28,0.0,0.0,-0.013202822672433223,-0.011665463388684127,0
2022-12-29,0.0,0.0,0.024375240292195288,0.013233951931852728,0
2022-12-30,0.0,0.0,-0.0006005104338688838,0.010090281465745976,0
2023-01-03,0.007811171792244643,0.008011171792244642,-0.006759801712482916,-0.015522054718034473,1
2023-01-04,0.0,0.0,0.0047640653357532425,-0.0033753375337532976,0
2023-01-05,0.0,0.0,-0.015654399036652444,-0.009316770186335588,0
2023-01-06,0.0,0.0,0.027601498585518858,0.02069489272830838,0
2023-01-09,0.0,0.0,0.006473214285714235,-0.0010707824096295449,0
2023-01-10,0.0,0.0,0.00846455237672794,0.012393780845300295,0
2023-01-11,0.0,0.0,0.017300150276729154,0.013252044392523255,0
2023-01-12,0.0,0.0,0.005404431633939888,0.0033438803394219008,0
2023-01-13,0.0,0.0,0.0068804873678551814,0.016166365280289474,0
2023-01-17,0.0,0.0,0.0020286863366194563,0.0027424582398405395,0
2023-01-18,0.0,0.0,-0.012999928962136864,-0.018473384903394452,0
2023-01-19,0.0,0.0,-0.009824384626457516,-0.0038737238433135257,0
2023-01-20,0.0,0.0,0.027366890786843623,0.021279670508327575,0
2023-01-23,0.0,0.0,0.02221593321069748,0.019115468716935702,0
2023-01-24,0.0,0.0,-0.0020418050941305443,0.0036893947304306174,0
2023-01-25,0.0,0.0,-0.002219370947047161,0.013954963526799924,0
2023-01-26,0.0,0.0,0.019497445521843293,0.007279719799464068,0
2023-01-27,0.0,0.0,0.009954319220017771,0.014589041095890432,0
2023-01-30,0.0,0.0,-0.02021872679403225,-0.009080667736319326,0
2023-01-31,0.0,0.0,0.01498604747304233,0.014846198890840823,0
2023-02-01,0.0,0.0,0.021383477021247765,0.02211202065147244,0
2023-02-02,0.0,0.0,0.03588993752492353,0.013492863413206768,0
2023-02-03,0.0,0.0,-0.01777235981008607,0.004066373712861671,0
2023-02-06,0.0,0.0,-0.008459076360311069,0.000263582748509128,0
2023-02-07,0.0,0.0,0.020718732501070702,0.02115600079087865,0
2023-02-08,0.0,0.0,-0.017781076545759666,-0.013515265443702629,0
2023-02-09,-0.001684480508175068,-0.0014844805081750678,-0.008837927522423406,-0.023183525450071185,1
2023-02-10,0.0,0.0,-0.0065632458233890745,0.000734606651529246,0
2023-02-13,0.0,0.0,0.0160160160160161,0.011191179889084468,0
2023-02-14,0.0,0.0,0.00738916256157629,0.012743900425897126,0
2023-02-15,0.0,0.0,0.007660961695191704,0.013775008199409688,0
2023-02-16,0.0,0.0,-0.01876415399547071,-0.003548196333530429,0
2023-02-17,0.0,0.0,-0.007055720408836064,0.0002989338027701294,0
2023-02-21,0.0,0.0,-0.02367512285828144,-0.01086590863217396,0
2023-02-22,0.0,0.0,0.0007482229704451893,-0.0012558549996606327,0
2023-02-23,0.0,0.0,0.008734069668649092,-0.0038594489378126484,0
2023-02-24,0.0,0.0,-0.016744154706556102,0.00030847271730194414,0
2023-02-27,0.0,0.0,0.007161212951858786,-0.003829599755990065,0
2023-02-28,0.0,0.0,-0.001292780839627139,0.0008864643709511899,0
2023-03-01,0.0,0.0,-0.008039242403597213,-0.007024483393575642,0
2023-03-02,0.0,0.0,0.008276098901099038,0.017148202036998406,0
2023-03-03,0.0,0.0,0.02067368277647219,0.014523172754663305,0
2023-03-06,0.0,0.0,0.0011345435130805104,-0.0030570877915864214,0
2023-03-07,0.0,0.0,-0.012265848943403768,-0.012430432898990262,0
2023-03-08,0.0,0.0,0.004994263346156602,0.00353809347306,0
2023-03-09,-0.0006840351024975042,-0.00048403510249750425,-0.01732590155127245,-0.019005798947474117,1
2023-03-10,0.0,0.0,-0.014043600082006447,-0.014615988798961754,0
2023-03-13,0.0,0.0,0.007416392306359265,0.013810902242527678,0
2023-03-14,0.0,0.0,0.02297980666689603,0.010397200231048842,0
2023-03-15,0.0,0.0,0.005245989844301802,0.014319161209324527,0
2023-03-16,0.0,0.0,0.026360686448332338,0.02956375838926184,0
2023-03-17,0.0,0.0,-0.004726051953978017,-0.004434011476264987,0
2023-03-20,0.0,0.0,0.0019976421273251166,0.0056201932557682355,0
2023-03-21,0.0,0.0,0.014282445991436798,0.007793726050529193,0
2023-03-22,0.0,0.0,-0.01359798930205569,-0.01337544719115602,0
2023-03-23,0.0,0.0,0.011858094864758861,-0.0005485286525555022,0
2023-03-24,0.0,0.0,0.003680387409200847,0.005075649812491978,0
2023-03-27,0.0,0.0,-0.006851297886712349,-0.009114249037227351,0
2023-03-28,0.0,0.0,-0.005311568856069426,-0.003407210305999997,0
2023-03-29,0.0,0.0,0.018233915082052743,0.0059186824498200785,0
2023-03-30,0.0,0.0,0.009465336403172042,0.001395761959142261,0
2023-03-31,0.0,0.0,0.01663076533198171,0.01589060175366397,0
2023-04-03,0.0,0.0,-0.0024304365437947117,0.004329140132383946,0
2023-04-04,0.0,0.0,-0.0033734187099796475,-0.0047723019338741235,0
2023-04-05,0.0,0.0,-0.009872441783934538,-0.007041810751336031,0
2023-04-06,0.0,0.0,0.006742213218536408,0.012124490835030644,0
2023-04-10,0.0,0.0,-0.0005659487501965543,0.008886914019106795,0
2023-04-11,0.0,0.0,-0.006417717935004896,-0.006292672183242587,0
2023-04-12,0.0,0.0,-0.00883386632048877,-0.015171166068844055,0
2023-04-13,0.0,0.0,0.01958216202402241,0.014129530222659836,0
2023-04-14,0.0,0.0,-0.0018798759281888344,0.003085739475424454,0
2023-04-17,0.0,0.0,0.0008475374329033336,0.002168788307402192,0
2023-04-18,0.0,0.0,6.272738677726153e-05,-0.006635720738963791,0
2023-04-19,0.0,0.0,-0.0004704258922412219,0.007269049650769466,0
2023-04-20,0.0,0.0,-0.007624486210034198,0.0018689220437770881,0
2023-04-21,0.0,0.0,0.001043379284178636,0.0022158209616662816,0
2023-04-24,0.0,0.0,-0.002084583557057651,-0.0013591251027246232,0
2023-04-25,0.0,0.0,-0.018863744263332705,-0.013681631614114398,0
2023-04-26,0.0,0.0,0.006064711764895536,-0.005264165390505338,0
2023-04-27,0.0,0.0,0.027190816686439856,0.014729173265758844,0
2023-04-28,0.0,0.0,0.00689870454190733,0.007653619068445083,0
2023-05-01,0.0,0.0,-0.001147073412698374,0.0003104722282591954,0
2023-05-02,0.0,0.0,-0.008721561811353529,-0.008506146777598422,0
2023-05-03,0.0,0.0,-0.006543928862170367,-0.00769351055512113,0
2023-05-04,0.0,0.0,-0.0035298937880172687,-0.0028070396770326633,0
2023-05-05,0.0,0.0,0.021254388461903417,0.01387885829120461,0
2023-05-08,0.0,0.0,0.0024776239586237203,0.00393896160287821,0
2023-05-09,0.0,0.0,-0.006333220056226718,-0.001118012422360315,0
2023-05-10,0.0,0.0,0.010881731127969196,0.00314698259903734,0
2023-05-11,0.0,0.0,0.0032601340960816128,0.001535155050660153,0
2023-05-12,0.0,0.0,-0.0035867565910484567,-0.0052335190059376036,0
2023-05-15,0.0,0.0,0.005414884779866513,0.0039322908666401535,0
2023-05-16,0.0,0.0,0.0011322255882983967,0.0033736122186101003,0
2023-05-17,0.0,0.0,0.012104169213840166,0.008774067755300985,0
2023-05-18,0.0,0.0,0.018573326890553243,0.017344353281853353,0
2023-05-19,0.0,0.0,-0.0022533874936994103,-0.0029037897419182945,0
2023-05-22,0.0,0.0,0.003357998276425578,0.0041338289962824515,0
2023-05-23,0.0,0.0,-0.012676223196303682,-0.007532227812676706,0
2023-05-24,0.0,0.0,-0.005129589632829501,0.0008449769140235208,0
2023-05-25,0.0,0.0,0.024332881049299093,0.0017102081736157793,0
2023-05-26,0.0,0.0,0.025550453314494126,0.02242047188637164,0
2023-05-30,0.0,0.0,0.0045350172215845586,-0.007740069745683309,0
2023-05-31,0.0,0.0,-0.005686039202240201,-0.0010907942704595497,0
2023-06-01,0.0,0.0,0.011552056093565799,0.012308400195554015,0
2023-06-02,0.0,0.0,0.007499786937871011,0.0024024872809496056,0
2023-06-05,0.0,0.0,0.0007049203440010476,0.001326072849363591,0
2023-06-06,0.0,0.0,-0.00016906170752328809,0.0015806706559782224,0
2023-06-07,-0.004782429405683985,-0.004582429405683985,-0.016965392853116823,-0.01776814124405146,1
2023-06-08,0.0,0.0,0.012413279055099924,0.011543308890925585,0
2023-06-09,0.0,0.0,0.003822738213223875,-0.0003665792516143185,0
2023-06-12,0.0,0.0,0.016897038081805427,0.012072208652685434,0
2023-06-13,0.0,0.0,0.007683985686149253,-8.257865617011806e-05,0
2023-06-14,0.0,0.0,0.007267521885151007,0.007239794092548157,0
2023-06-15,0.0,0.0,0.011915823995627184,0.0154960094347385,0
2023-06-16,0.000999632262588679,0.001199632262588679,-0.006292875276832421,-0.012851470272590704,1
2023-06-20,0.0,0.0,-0.002799445546707302,0.0025959830577948484,0
2023-06-21,0.0,0.0,-0.013627691469065173,-0.010499261770656854,0
2023-06-22,0.0,0.0,0.01179883945841409,0.015362005379474963,0
2023-06-23,0.0,0.0,-0.009913428189092466,0.0009662902735982914,0
2023-06-26,0.0,0.0,-0.01340541733325984,-0.011878453038674075,0
2023-06-27,0.0,0.0,0.01719414001341968,0.012748782185107776,0
2023-06-28,0.0,0.0,0.0019514608470989625,0.0070722139344714385,0
2023-06-29,0.0,0.0,-0.0020025237285346,-0.0011805403030968886,0
2023-06-30,0.0,0.0,0.015420136884637614,0.0050877431641953574,0
2023-07-03,0.0,0.0,0.002355043040441762,0.0005944821250034593,0
2023-07-05,0.0,0.0,-2.7005860271822613e-05,0.004326068972999364,0
2023-07-06,0.0,0.0,-0.007615858269417686,0.0025920165889061764,0
2023-07-07,0.0,0.0,-0.003320089261416137,-0.002614165509353894,0
2023-07-10,0.0,0.0,0.000327653997378885,0.0010930156301236504,0
2023-07-11,0.0,0.0,0.004940495687302038,0.0037623708388996313,0
2023-07-12,0.0,0.0,0.012630035038161624,0.0012891443304507977,0
2023-07-13,0.0,0.0,0.016978702859288708,0.008243584629703316,0
2023-07-14,0.0,0.0,-0.0002109982856388637,-0.0013567448661037096,0
2023-07-17,0.0,0.0,0.009338644577518762,0.007398630858346467,0
2023-07-18,0.0,0.0,0.008180653929588777,0.009896324222431696,0
2023-07-19,0.0,0.0,-0.0002333177788148566,-0.003024662633783204,0
2023-07-20,-0.002270220528595068,-0.002070220528595068,-0.02305199014650583,-0.01528972060322531,1
2023-07-21,0.0,0.0,-0.00299925682131863,-0.009362308138614939,0
2023-07-24,0.0,0.0,0.0015973165082661112,-0.0010355265254101687,0
2023-07-25,0.0,0.0,0.006777768917948901,0.0048547552725826115,0
2023-07-26,0.0,0.0,-0.0033264691905591226,-0.0004500688340569603,0
2023-07-27,-0.003857159112704811,-0.003657159112704811,-0.0023839796567068916,-0.016837653692536536,1
2023-07-28,0.0,0.0,0.01821464606234402,0.007196512055470894,0
2023-07-31,0.0,0.0,0.000521539584854569,-0.00028661507595306723,0
2023-08-01,0.0,0.0,-0.002319641367806491,0.0012555256205697418,0
2023-08-02,0.0006119921606186687,0.0008119921606186686,-0.021944146921288543,-0.012840795232821778,1
2023-08-03,0.0,0.0,-0.0016026069072356819,0.0049739205248158225,0
2023-08-04,0.0,0.0,-0.0046817731881537705,-0.009873586161011305,0
2023-08-07,0.0,0.0,0.008466831523492147,0.0035037980100567356,0
2023-08-08,0.0,0.0,-0.008502358804872157,-0.0017174753112924046,0
2023-08-09,0.0,0.0,-0.01099462365591386,-0.011765021891536165,0
2023-08-10,0.0,0.0,0.0018482781114945723,-0.006415613122355057,0
2023-08-11,0.0,0.0,-0.006375647738679713,0.0006830787726439524,0
2023-08-14,0.0,0.0,0.011222149410222926,0.013463590838190598,0
2023-08-15,0.0,0.0,-0.01061158363710002,-0.007851418670132171,0
2023-08-16,0.0,0.0,-0.01058894165165658,-0.009101593462158664,0
2023-08-17,-0.00021392609024208903,-1.3926090242089018e-05,-0.010922932641915462,-0.014781844158698765,1
2023-08-18,0.0,0.0,-0.0012549500808745062,0.008022293531498192,0
2023-08-21,0.0,0.0,0.01611146790271678,0.011901451532172702,0
2023-08-22,0.0,0.0,-0.0014289640010991533,-0.008648206247442447,0
2023-08-23,0.0,0.0,0.015768616874896946,0.012425256459487777,0
2023-08-24,-0.01645897132202003,-0.016258971322020033,-0.021375741648830937,-0.03064620008587371,1
2023-08-25,0.0,0.0,0.007751508775815097,0.005385698898003222,0
2023-08-28,0.0,0.0,0.007527058952804921,-0.0006267200741164602,0
2023-08-29,0.0,0.0,0.021839895299378353,0.022370144041903073,0
2023-08-30,0.0,0.0,0.005576753742295271,0.00528169014084523,0
2023-08-31,0.0,0.0,0.002998460966937344,0.002785589218443185,0
2023-09-01,0.0,0.0,-0.0010582290536788053,-0.00738696109358572,0
2023-09-05,0.0,0.0,0.0012712201064646322,0.0034503808689652082,0
2023-09-06,0.0,0.0,-0.008807892718279642,-0.006546861747243393,0
2023-09-07,0.0,0.0,-0.007151625126754602,0.004997163771913282,0
2023-09-08,0.0,0.0,0.0013976240391333494,0.0015322168758904464,0
2023-09-11,0.0,0.0,0.011782704385635334,0.003433956237022695,0
2023-09-12,0.0,0.0,-0.011088415523781703,-0.006608575159218644,0
2023-09-13,0.0,0.0,0.0038091150513692718,0.003163284454333448,0
2023-09-14,0.0,0.0,0.00817722669089549,0.0033777494082289916,0
2023-09-15,-0.0002999450098715382,-9.99450098715382e-05,-0.017123015347098813,-0.013567077225931756,1
2023-09-18,0.0,0.0,-0.0004045198349558188,0.0036553666197336465,0
2023-09-19,0.0,0.0,-0.002131333297361482,0.0014892234376693292,0
2023-09-20,-0.0041334616243885675,-0.003933461624388568,-0.014410468543001542,-0.017279956867502277,1
2023-09-21,0.0,0.0,-0.018324463707686367,-0.008148558758314883,0
2023-09-22,0.0,0.0,0.0001397194433576665,-0.004782693323693743,0
2023-09-25,0.0,0.0,0.004749797435109393,0.007508475051130503,0
2023-09-26,0.0,0.0,-0.015016267623258583,-0.00778733297851486,0
2023-09-27,0.0,0.0,0.0023432427091274466,-0.0009567223816758785,0
2023-09-28,0.0,0.0,0.008365254619197682,0.011013526870181423,0
2023-09-29,0.0,0.0,0.0007262366972988765,-0.009044642363224109,0
2023-10-02,0.0,0.0,0.008345661093588586,0.007697885870474597,0
2023-10-03,0.003910438214402601,0.004110438214402601,-0.017549687205890452,-0.010758682200791458,1
2023-10-04,0.0,0.0,0.013608700552237174,0.01118700283891294,0
2023-10-05,0.0,0.0,-0.0029464906184850648,-0.0029187746705954254,0
2023-10-06,0.0,0.0,0.016755415539881247,0.025530718402924313,0
2023-10-09,0.0,0.0,0.005100082259391403,0.01175821142699407,0
2023-10-10,0.0,0.0,0.005537974683544222,0.0046061597165441,0
2023-10-11,0.0,0.0,0.007135299384139593,0.0034600205438719556,0
2023-10-12,0.0,0.0,-0.0034750282851140346,-0.00484222419498026,0
2023-10-13,0.000906420079188819,0.001106420079188819,-0.012569945665396265,-0.014275305610276123,1
2023-10-16,0.0,0.0,0.011306395094174526,0.00761005946211335,0
2023-10-17,0.0,0.0,-0.003275493354267689,0.006533446324594738,0
2023-10-18,0.0,0.0,-0.013117870722433422,-0.006289824158394186,0
2023-10-19,0.0,0.0,-0.009356853895478356,-0.01326718017598194,0
2023-10-20,0.0,0.0,-0.014917909825818865,-0.013520280420630804,0
2023-10-23,0.0,0.0,0.003017484489565625,0.006822170639189329,0
2023-10-24,0.0,0.0,0.009728118761773485,0.0045313417806494005,0
2023-10-25,-0.0015204417509474765,-0.0013204417509474764,-0.024475816556678742,-0.01788617886178856,1
2023-10-26,0.0018532728154902812,0.0020532728154902813,-0.019067191870754008,-0.015639321723189714,1
2023-10-27,0.0,0.0,0.004801257056392894,-0.00323297635886044,0
2023-10-30,0.0,0.0,0.011265239929338922,0.003938705689561006,0
2023-10-31,0.0,0.0,0.004782359679266879,0.00469604558600345,0
2023-11-01,0.0,0.0,0.017356855815544137,0.01489821448879769,0
2023-11-02,0.0,0.0,0.01815329448677727,0.005255296785971142,0
2023-11-03,0.0,0.0,0.011748844375963019,0.00811514736120622,0
2023-11-06,0.0,0.0,0.0040793016235620705,0.001981057830606092,0
2023-11-07,0.0,0.0,0.00945261504292949,0.00656277851297693,0
2023-11-08,0.0,0.0,0.0006439495572847509,-0.0003752546370751064,0
2023-11-09,0.0,0.0,-0.007695607872580057,-0.009527887806444757,0
2023-11-10,0.0,0.0,0.022482233091036807,0.017669840245279955,0
2023-11-13,0.0,0.0,-0.0031184756468194408,0.0011146792643115244,0
2023-11-14,0.0,0.0,0.021526470666207276,0.004221938443095041,0
2023-11-15,0.0,0.0,0.0007526016661043577,-0.004209167204648145,0
2023-11-16,0.0,0.0,0.000855764742492493,0.0028843155597131354,0
2023-11-17,0.0,0.0,0.00023319082782746747,0.002154668881908739,0
2023-11-20,0.0,0.0,0.01217490415500988,0.012148685403445159,0
2023-11-21,0.0,0.0,-0.005809489686236291,-0.001388139122387555,0
2023-11-22,0.0,0.0,0.004092980152907488,-0.0012545766443915474,0
2023-11-24,0.0,0.0,-0.0014100394811055184,-0.00035929680482482684,0
2023-11-27,0.0,0.0,-0.0008728915817308724,0.0004113004807075882,0
2023-11-28,0.0,0.0,0.002620962561348472,0.004582786231044356,0
2023-11-29,0.0,0.0,-0.0009738845177990063,-0.007334029387048302,0
2023-11-30,0.0,0.0,-0.0025140453041225808,-0.0030762920426579132,0
2023-12-01,0.0,0.0,0.002854718000154355,0.005647969052224422,0
2023-12-04,0.0,0.0,-0.009283479509668124,0.0005957160247611615,0
2023-12-05,0.0,0.0,0.0025108718161110932,0.007492390540857041,0
2023-12-06,-0.0013914392953802367,-0.0011914392953802366,-0.005783779596684635,-0.01337535552309932,1
2023-12-07,0.0,0.0,0.013972211401116708,0.006081377071146976,0
2023-12-08,0.0,0.0,0.004456624747073867,0.008799238428486733,0
2023-12-11,0.0,0.0,0.00854221383583642,0.009649257160361469,0
2023-12-12,0.0,0.0,0.007964199029126373,0.007862271210435923,0
2023-12-13,0.0,0.0,0.01271728497253366,0.010309794304589337,0
2023-12-14,0.0,0.0,-0.0008668945360876812,-0.003926119808385642,0
2023-12-15,0.0,0.0,0.004834031582339637,0.0028700084120936165,0
2023-12-18,0.0,0.0,0.0042926925543989025,0.0053095596769812126,0
2023-12-19,0.0,0.0,0.00510956077429503,0.003950532463071088,0
2023-12-20,-0.00203630407710067,-0.00183630407710067,-0.014859712581875129,-0.01290559568997196,1
2023-12-21,0.0,0.0,0.011635407363302486,0.0018179138210583368,0
2023-12-22,0.0,0.0,0.001495941339480611,-0.0015158924205379565,0
2023-12-26,0.0,0.0,0.006121749351094552,0.003982895540623144,0
2023-12-27,0.0,0.0,0.0015089563862928923,0.0012653607494830243,0
2023-12-28,0.0,0.0,-0.000486026731470246,-0.003319843943102252,0
2023-12-29,0.0,0.0,-0.0043277413080476945,-0.004327951760357829,0
2024-01-02,0.0021291385630466176,0.0023291385630466177,-0.01692225043953899,-0.008008082002759709,1
2024-01-03,0.0,0.0,-0.010581484885367254,-0.004000700122521517,0
2024-01-04,0.0,0.0,-0.0051464865814776495,-0.00040359196851991186,0
2024-01-05,0.0,0.0,0.0011860300797417178,0.000756715853197143,0
2024-01-08,0.0,0.0,0.020667926906112077,0.017487876579813433,0
2024-01-09,0.0,0.0,0.001975552537350378,0.009554377845786277,0
2024-01-10,0.0,0.0,0.0067775723967959944,0.005984189917994431,0
2024-01-11,0.01041724911617845,0.010617249116178451,0.0020807833537332954,-0.0010737206862051485,1
2024-01-12,0.0,0.0,0.0005130084279956204,-0.0020467836257309635,0
2024-01-16,0.0,0.0,-9.766578767467227e-05,0.0029634346452449556,0
2024-01-17,0.0,0.0,-0.005640750146512996,0.0025605042223697527,0
2024-01-18,0.0,0.0,0.01419415043834893,0.006016759232193358,0
2024-01-19,0.0,0.0,0.019830988643792846,0.014353836520398788,0
2024-01-22,0.0,0.0,0.0013058549788689255,-0.0039677853617061665,0
2024-01-23,0.0,0.0,0.004149574372228626,0.0024856189191109213,0
2024-01-24,0.0,0.0,0.005549258524605527,-0.0037666105184354093,0
2024-01-25,0.0,0.0,0.0012211445882159833,-0.004692314875338499,0
2024-01-26,0.0,0.0,-0.0059575466166296165,-0.001484308736217077,0
2024-01-29,0.0,0.0,0.010240437932092172,0.009145119852923767,0
2024-01-30,0.0,0.0,-0.006656545603176411,-0.0042144696792320024,0
2024-01-31,0.0,0.0,-0.019586174465083483,-0.009219436853985963,0
2024-02-01,0.0,0.0,0.011775427488788015,0.0073783996752547765,0
2024-02-02,0.0,0.0,0.016900540438039346,0.012671071260028421,0
2024-02-05,0.0,0.0,-0.0013053308780681672,-0.001444985666674392,0
2024-02-06,0.0,0.0,-0.0020072353833586742,-0.004701938967901165,0
2024-02-07,0.0,0.0,0.010290231296335328,0.0036941520875444223,0
2024-02-08,0.0,0.0,0.0018518947197851965,0.0015736733702067518,0
2024-02-09,0.0,0.0,0.009843110977610259,0.007166889431718726,0
2024-02-12,0.0,0.0,-0.003912595812836095,-0.003661829999542343,0
2024-02-13,0.0,0.0,-0.015597004640051426,0.0029254821194533154,0
2024-02-14,0.0,0.0,0.01089721152724299,0.00449844641283681,0
2024-02-15,0.0,0.0,0.0029777018604864036,0.0013596976401180072,0
2024-02-16,0.0,0.0,-0.009067685438770123,-0.009933546414035765,0
2024-02-20,0.0,0.0,-0.007548133869057283,-0.0028701435071754045,0
2024-02-21,0.0,0.0,-0.00400168491996622,0.002496761276645776,0
2024-02-22,0.0,0.0,0.029275627922276115,0.008239545213929,0
2024-02-23,0.0,0.0,-0.002944734859725684,-0.006527919936312965,0
2024-02-26,0.0,0.0,-0.0005265808874032052,-0.0023994515539305095,0
2024-02-27,0.0,0.0,0.002405222769442217,-0.00015993785272006011,0
2024-02-28,0.0,0.0,-0.005324497257769734,-0.00036745286268746735,0
2024-02-29,0.0,0.0,0.008569393709651596,0.001916801679483271,0
2024-03-01,0.0,0.0,0.015056947608200533,0.012980222777904116,0
2024-03-04,0.0,0.0,-0.00356814254617277,-0.00356814254617277,0
2024-03-05,0.0005117074408560242,0.0007117074408560242,-0.017949641908022063,-0.01108994421009657,1
2024-03-06,0.0,0.0,0.006283683063868839,-0.003474745639534871,0
2024-03-07,0.0,0.0,0.01517810342077075,0.006848695809411831,0
2024-03-08,-0.002534766879236838,-0.002334766879236838,-0.014434841171848678,-0.015230703662995504,1
2024-03-11,0.0,0.0,-0.0037128149059267868,-0.0002742794450412145,0
2024-03-12,0.0,0.0,0.014335032808248993,0.008937302435585437,0
2024-03-13,0.0,0.0,-0.007686065906324702,-0.00542189088444589,0
2024-03-14,0.0,0.0,-0.002521294718909717,-0.005254813137032799,0
2024-03-15,0.0,0.0,-0.01188686979095499,-0.004930401082394953,0
2024-03-18,0.0,0.0,0.008204277286135708,-0.002849132723998782,0
2024-03-19,0.0,0.0,0.002491542470512975,0.0071650017223561235,0
2024-03-20,0.0,0.0,0.011856716145655088,0.009072718177270511,0
2024-03-21,0.0,0.0,0.0047321810847962276,-0.006705578328283668,0
2024-03-22,0.0,0.0,0.001143831161549258,0.0019759739530706977,0
2024-03-25,0.0,0.0,-0.003629194856400342,0.0027279900800361023,0
2024-03-26,0.0,0.0,-0.0032377012321251897,-0.006677123011427311,0
2024-03-27,0.0,0.0,0.0034061174772173075,-0.003606307678523435,0
2024-03-28,0.0,0.0,-0.0018434008497628662,-0.001821125050586736,0
2024-04-01,0.0,0.0,0.0021170694353731534,-4.494685034950319e-05,0
2024-04-02,0.0,0.0,-0.008630183166647876,0.0023404835484457376,0
2024-04-03,0.0,0.0,0.0022443381469474666,0.0071532713686897065,0
2024-04-04,-0.013187687385686564,-0.012987687385686564,-0.015290658222121833,-0.024623036766518114,1
2024-04-05,0.0,0.0,0.011783893049111205,0.008493978662026835,0
2024-04-08,0.0,0.0,0.0002951392830385924,-0.001835028658163651,0
2024-04-09,0.0,0.0,0.0036995006808897557,-0.0016480043344770934,0
2024-04-10,0.0,0.0,-0.008728489699929898,0.003135011441647517,0
2024-04-11,0.0,0.0,0.015968246002235453,0.01160677781311037,0
2024-04-12,0.0,0.0,-0.015941801199003125,-0.0064157787349807816,0
2024-04-15,-0.011450393768024614,-0.011250393768024614,-0.016451046158760585,-0.024883499977378598,1
2024-04-16,0.0,0.0,9.279450656518584e-05,0.00046414481318191037,0
2024-04-17,-0.002361588558241001,-0.002161588558241001,-0.012201345395499996,-0.016762872315862487,1
2024-04-18,0.0,0.0,-0.0057063685891413085,-0.0072451874604329,0
2024-04-19,-0.003023015594286882,-0.0028230155942868818,-0.020689166528896408,-0.017929041731798656,1
2024-04-22,0.0,0.0,0.010056674303629665,0.003618413170065393,0
2024-04-23,0.0,0.0,0.01492287856358332,0.010896689402761783,0
2024-04-24,0.0,0.0,0.0033876773237349056,-0.003946753853339535,0
2024-04-25,0.0,0.0,-0.004829898478347472,0.012427249308271993,0
2024-04-26,0.0,0.0,0.015431735186712148,0.007904214021795086,0
2024-04-29,0.0,0.0,0.004060324825986061,-0.0008773347493823414,0
2024-04-30,0.0,0.0,-0.018856152512998325,-0.015215122347211008,0
2024-05-01,0.0,0.0,-0.0072305047222025465,-0.0038638780574263842,0
2024-05-02,0.0,0.0,0.012763332700702179,0.003762050317422938,0
2024-05-03,0.0,0.0,0.020098383696416144,0.0023938863824695122,0
2024-05-06,0.0,0.0,0.010953430697161703,0.006745941001600642,0
2024-05-07,0.0,0.0,0.00015900056785911332,-0.0008622645790786754,0
2024-05-08,0.0,0.0,-0.0005904796511627675,0.005460735257157179,0
2024-05-09,0.0,0.0,0.0021815207017223948,0.0015670065632593655,0
2024-05-10,0.0,0.0,0.002358169697519452,-0.0010846477154607959,0
2024-05-13,0.0,0.0,0.002307379088811512,-0.0020495957116152264,0
2024-05-14,0.0,0.0,0.0064322469982847075,0.007409917542076094,0
2024-05-15,0.0,0.0,0.015630255869755194,0.009968110964921895,0
2024-05-16,0.0,0.0,-0.0020313534996687643,-0.0016125113207129393,0
2024-05-17,0.0,0.0,-0.00048674720120367443,-0.0007741478843644733,0
2024-05-20,0.0,0.0,0.006972728882592705,0.00648258772512067,0
2024-05-21,0.0,0.0,0.0019564309423840687,0.006092177291188383,0
2024-05-22,0.0,0.0,-0.00019745502413348603,-0.0007674428803228217,0
2024-05-23,-0.004183526359287226,-0.003983526359287226,-0.004498474907287386,-0.014895233959396403,1
2024-05-24,0.0,0.0,0.009456421108319013,0.005842430099497031,0
2024-05-28,0.0,0.0,0.003777704989627706,0.0010453416960669593,0
2024-05-29,0.0,0.0,-0.007048381482770649,0.0021076666373933683,0
2024-05-30,0.0023787663096594748,0.002578766309659475,-0.010713346770659826,-0.008671789242590489,1
2024-05-31,0.011267697192120374,0.011467697192120374,-0.0018602591075186359,-0.00015494267121163308,1
2024-06-03,0.008826857904332219,0.00902685790433222,0.005369306205764257,-0.003167828937237438,1
2024-06-04,0.0,0.0,0.0027365215280383826,0.0033122088016428464,0
2024-06-05,0.0,0.0,0.02015978167572685,0.012118433119350014,0
2024-06-06,0.0,0.0,-0.0003451772269323916,-0.002089526517599527,0
2024-06-07,0.0,0.0,-0.0008848220644409599,-0.0001079913606911731,0
2024-06-10,0.0,0.0,0.004039225851045547,0.0065176908752326845,0
2024-06-11,0.0,0.0,0.006862724006626131,0.009578461405703953,0
2024-06-12,0.0,0.0,0.013097730866202362,0.004576368143392795,0
2024-06-13,0.0,0.0,0.005420225666983081,-0.002093276396215371,0
2024-06-14,0.0,0.0,0.005181238462829363,0.005603122639133762,0
2024-06-17,0.0,0.0,0.012249838268745261,0.011679806448921859,0
2024-06-18,0.0,0.0,0.0003092400940090112,0.00041236263169830423,0
2024-06-20,0.000659009799318855,0.000859009799318855,-0.007708002720471452,-0.010176390773405708,1
2024-06-21,0.0,0.0,-0.002679294660103526,-0.002098962987593267,0
2024-06-24,0.0,0.0,-0.012953475779915902,-0.008825128612656385,0
2024-06-25,0.0,0.0,0.011435564182631586,0.006952759048039159,0
2024-06-26,0.0,0.0,0.002065167508031207,0.0038031553651656225,0
2024-06-27,0.0,0.0,0.0025813435476820246,0.0031033908189619375,0
2024-06-28,0.0,0.0,-0.005190922115404617,-0.0068406542152941174,0
2024-07-01,0.0,0.0,0.0058650414309866505,0.0038538455128738214,0
2024-07-02,0.0,0.0,0.010499667994687822,0.0136758185716368,0
2024-07-03,0.0,0.0,0.008337098032773493,0.009913208012833685,0
2024-07-05,0.0,0.0,0.010426849136526473,0.008680802618471706,0
2024-07-08,0.0,0.0,0.0023782650757819823,0.0016313213703098572,0
2024-07-09,0.0,0.0,0.0008645996702456582,-0.002184937959789135,0
2024-07-10,0.0,0.0,0.010426502199811116,0.006503772187868906,0
2024-07-11,-0.012056233349644585,-0.011856233349644585,-0.021930173373628015,-0.022144035621285307,1
2024-07-12,0.0,0.0,0.005874819588152835,0.0046902600962417385,0
2024-07-15,0.0,0.0,0.0026878460854451447,-0.0009262801796179332,0
2024-07-16,0.0,0.0,0.00038294870502864065,-0.0025722438808729597,0
2024-07-17,-0.0014181038077466734,-0.0012181038077466733,-0.029354877704799165,-0.01333251413123615,1
2024-07-18,0.0008545664597598759,0.0010545664597598758,-0.004732548726570696,-0.012440014005313693,1
2024-07-19,0.0,0.0,-0.00886358422490563,-0.008160283835959459,0
2024-07-22,0.0,0.0,0.014897735880817997,0.0024731897913377043,0
2024-07-23,0.0,0.0,-0.0035246309504063378,-0.0016410128580628403,0
2024-07-24,-0.008147894853437943,-0.007947894853437942,-0.035870334151720695,-0.022033683677345817,1
2024-07-25,0.004360985209472346,0.004560985209472346,-0.011027666278216608,-0.011774346588458662,1
2024-07-26,0.0,0.0,0.010255962642110594,0.0006916675672756778,0
2024-07-29,0.0,0.0,0.002008769466703919,-0.003886538833179465,0
2024-07-30,-0.0014370487268142939,-0.0012370487268142938,-0.013731407630954928,-0.017859826124289047,1
2024-07-31,0.0,0.0,0.029593687845605787,0.00683950670057909,0
2024-08-01,-0.0077601429259462,-0.0075601429259462005,-0.02422145328719716,-0.025648634899101186,1
2024-08-02,0.0,0.0,-0.023734934516816852,-0.004746168688593677,0
2024-08-05,0.0,0.0,-0.029816155988857895,0.025099479644934197,0
2024-08-06,0.0,0.0,0.00955509107196173,0.005260389268805898,0
2024-08-07,-0.0018097159281289742,-0.0016097159281289741,-0.01082974996018471,-0.026249188111715838,1
2024-08-08,0.0,0.0,0.030590887135726996,0.01589352922504883,0
2024-08-09,0.0,0.0,0.005222398285982255,0.008215069167748723,0
2024-08-12,0.0,0.0,0.0021535933926866146,-2.2153791621404295e-05,0
2024-08-13,0.0,0.0,0.024812796313527397,0.014830415514896167,0
2024-08-14,0.0,0.0,0.00032426823468378885,-0.001682811589825417,0
2024-08-15,0.0,0.0,0.025263112398158816,0.01207440907927304,0
2024-08-16,0.0,0.0,0.0012857805320178883,0.005099234056959112,0
2024-08-19,0.0,0.0,0.013136012462370728,0.01283751078561357,0
2024-08-20,0.0,0.0,-0.0020986140835704825,-0.0001873633808682218,0
2024-08-21,0.0,0.0,0.004664140257360616,0.003014239684024478,0
2024-08-22,-0.0016320050875130664,-0.0014320050875130663,-0.015854922279792683,-0.02060473558287257,1
2024-08-23,0.0,0.0,0.010845530167421291,0.0015858442534011363,0
2024-08-26,0.0,0.0,-0.00970833333333343,-0.008572322452810588,0
2024-08-27,0.0,0.0,0.0029873353809903858,0.006481031898498912,0
2024-08-28,0.0,0.0,-0.011347428475543153,-0.010371832287051963,0
2024-08-29,0.0,0.0,-0.001463880343693602,-0.005535835023664504,0
2024-08-30,0.0,0.0,0.011919432286576104,0.0025892556416300394,0
2024-09-03,-0.005812249762329213,-0.005612249762329213,-0.03036092972473592,-0.024070160608622104,1
2024-09-04,0.0,0.0,-0.002598471232758026,0.0042296204242702196,0
2024-09-05,0.0,0.0,0.0009335446473155429,0.0045100986992614445,0
2024-09-06,-0.005946294415162056,-0.0057462944151620565,-0.026787263577997655,-0.025286207720548237,1
2024-09-09,0.0,0.0,0.012859658115848216,0.0030900984417074895,0
2024-09-10,0.0,0.0,0.00924173744664003,0.005304225846046062,0
2024-09-11,0.0,0.0,0.021715431910347416,0.0185905938118327,0
2024-09-12,0.0,0.0,0.009816055652767774,0.009751413634908834,0
2024-09-13,0.0,0.0,0.004479945902539972,0.00605316627158814,0
2024-09-16,0.0,0.0,-0.004417890352168885,0.00010566580020721084,0
2024-09-17,0.0,0.0,0.0005282731806270924,-0.0058787713367906,0
2024-09-18,0.0,0.0,-0.004329552894464572,-0.00686749526016428,0
2024-09-19,0.0,0.0,0.025284235533683974,0.0015540498539192704,0
2024-09-20,0.0,0.0,-0.0019033432638199121,-0.00014508072706165276,0
2024-09-23,0.0,0.0,0.0012436779703175471,0.0001863546951030859,0
2024-09-24,0.0,0.0,0.004823617091752164,0.0018783800520167926,0
2024-09-25,0.0,0.0,0.0009271277582050264,0.002227998514667595,0
2024-09-26,0.0,0.0,0.007513070684615819,-0.007904817885157178,0
2024-09-27,0.0,0.0,-0.00555703107442751,-0.007645259938837912,0
2024-09-30,0.0,0.0,0.0027118644067796183,0.004714068096669299,0
2024-10-01,0.0020240136425970557,0.002224013642597056,-0.01393242772553116,-0.013184334631945904,1
2024-10-02,0.0,0.0,0.0014129282938890597,0.003310017486884753,0
2024-10-03,0.0,0.0,-0.0007469654528478031,0.0038562554717138653,0
2024-10-04,0.0,0.0,0.011898087584875094,-0.0002666940198994272,0
2024-10-07,0.0,0.0,-0.010711647377493194,-0.006778054760089747,0
2024-10-08,0.0,0.0,0.014934660858743065,0.00957372178434368,0
2024-10-09,0.0,0.0,0.007868383404864066,0.008486707566462082,0
2024-10-10,0.0,0.0,-0.00113555713271829,0.0035448711418966106,0
2024-10-11,0.0,0.0,0.0015631661219270843,0.005338875983209146,0
2024-10-14,0.0,0.0,0.00839143830063227,0.003489521350626301,0
2024-10-15,-0.0006997565674249582,-0.0004997565674249582,-0.01336683417085427,-0.014101199204547665,1
2024-10-16,0.0,0.0,0.00012223693592749996,-0.0005293375137424006,0
2024-10-17,0.0,0.0,0.0006925913100159775,-0.010454435581339183,0
2024-10-18,0.0,0.0,0.006554707379134994,0.0008298587216128972,0
2024-10-21,0.0,0.0,0.0019212490140958494,0.004460484165281109,0
2024-10-22,0.0,0.0,0.0010899842557829942,0.006555314269478085,0
2024-10-23,0.0020955012309457955,0.0022955012309457956,-0.015323816436809357,-0.010595838651512257,1
2024-10-24,0.0,0.0,0.008108772217216842,0.0004267338603156645,0
2024-10-25,0.0,0.0,0.0060935976600584585,0.00036353354606788457,0
2024-10-28,0.0,0.0,0.00016151174997980355,-0.006138907836135354,0
2024-10-29,0.0,0.0,0.009608397254743828,0.008956669087388125,0
2024-10-30,0.0,0.0,-0.00755758157389641,-0.005857145717775736,0
2024-10-31,-0.004672923945013196,-0.004472923945013196,-0.025242757564768903,-0.017283399000771693,1
2024-11-01,0.0,0.0,0.007398987289449099,0.003975283213182301,0
2024-11-04,0.0,0.0,-0.0029132388240362683,-0.001663859331991313,0
2024-11-05,0.0,0.0,0.012756939157630542,0.009433768790631847,0
2024-11-06,0.0,0.0,0.027163202698035294,0.010028767780086323,0
2024-11-07,0.0,0.0,0.015744293682503185,0.010110149488591569,0
2024-11-08,0.0,0.0,0.001168360789811862,0.002153849152591869,0
2024-11-11,0.0,0.0,-0.000583498657953041,-0.0029687409045927593,0
2024-11-12,0.0,0.0,-0.001809901914993084,-0.0016933647351927705,0
2024-11-13,0.0,0.0,-0.0012867754576825208,-0.00029274004683832455,0
2024-11-14,0.0,0.0,-0.0069497315763786816,-0.006290168193627821,0
2024-11-15,-3.3929550824285225e-05,0.00016607044917571478,-0.0238259057579272,-0.012665526702986485,1
2024-11-18,0.0,0.0,0.006746279477213735,0.0037941902716158715,0
2024-11-19,0.0,0.0,0.009241478636581757,0.012142656105504246,0
2024-11-20,0.0,0.0,-0.0075514329884647236,1.9874393830887627e-05,0
2024-11-21,0.011918382951395334,0.012118382951395335,0.005971281928384586,-0.002488938053097356,1
2024-11-22,0.0,0.0,0.005836575875486361,0.0027159906427183245,0
2024-11-25,0.0,0.0,-0.004046105869814132,-0.006491468915473586,0
2024-11-26,0.0,0.0,0.009076316363131998,0.0024405605416470966,0
2024-11-27,0.0,0.0,-0.0062648520198747,-0.0056477163154062815,0
2024-11-29,0.0,0.0,0.008280632411067135,0.007530686063289327,0
2024-12-02,0.0,0.0,0.009721868323565586,0.008375569949707451,0
2024-12-03,0.0,0.0,0.005474133747452203,0.005681486525926482,0
2024-12-04,0.0,0.0,0.008398169778172537,0.005631150061500501,0
2024-12-05,0.0,0.0,-0.001837953744830867,-0.0028663698381456992,0
2024-12-06,0.0,0.0,0.008803897498849134,0.007655795437145896,0
2024-12-09,0.0,0.0,-0.0070729156763951195,-0.006031776234420971,0
2024-12-10,0.0,0.0,-0.0026425138349003285,-0.005767541346778149,0
2024-12-11,0.0,0.0,0.015705097436881976,0.009371428571428586,0
2024-12-12,0.0,0.0,0.0006804907094115631,-0.0022362037598543383,0
2024-12-13,0.0,0.0,0.0007366969530968603,0.00013196093956180377,0
2024-12-16,0.0,0.0,0.014741968364226699,0.009548285435581727,0
2024-12-17,0.0,0.0,-0.004575977975780909,-0.0010440748750839557,0
2024-12-18,-0.023046189123387427,-0.022846189123387428,-0.03240334124418376,-0.0349061010931514,1
2024-12-19,0.0,0.0,-0.011761524942544233,-0.013469176308064434,0
2024-12-20,0.0,0.0,0.017979284737150714,0.016103753624324035,0
2024-12-23,0.0,0.0,0.00289882894989435,0.0063901453180637,0
2024-12-24,0.0,0.0,0.014452250148351053,0.009774593677952748,0
2024-12-26,0.0,0.0,-0.0022079024832063476,0.0024227740763174133,0
2024-12-27,0.0,0.0,-0.012027272079137785,-0.006672876941502981,0
2024-12-30,0.0,0.0,-0.015064219129835577,0.00019398265795045333,0
2024-12-31,0.0,0.0,-0.006452114427860534,-0.010969239698200739,0
2025-01-02,0.0,0.0,0.0011931773726625572,-0.007913669064748108,0
2025-01-03,0.0,0.0,0.014102178372570107,0.010187980909710737,0
2025-01-06,0.0,0.0,0.011100275455132813,0.0009923285370787571,0
2025-01-07,-0.002937416408050808,-0.002737416408050808,-0.016271935674408988,-0.019806312905496837,1
2025-01-08,0.0,0.0,-0.0045708807065795165,0.0003688747379047008,0
2025-01-10,0.0,0.0,-0.014301944953214463,-0.008348322515054463,0
2025-01-13,0.0,0.0,0.0031586330211679225,0.008699122106943458,0
2025-01-14,0.0,0.0,-0.0044865992364910845,-0.007135275386248363,0
2025-01-15,0.0,0.0,0.022593397904724366,0.006724752938424672,0
2025-01-16,0.0,0.0,-0.008582529526607874,-0.01136845350495197,0
2025-01-17,0.0,0.0,0.017625611729610524,-0.0021229798221287233,0
2025-01-21,0.0,0.0,0.010901845075010241,0.0006101281269066394,0
2025-01-22,0.0,0.0,0.005155225351578752,0.0036633495099795965,0
2025-01-23,0.0,0.0,0.002884941735490365,0.006804778466656725,0
2025-01-24,0.0,0.0,-0.005546280106040857,-0.00635998649206404,0
2025-01-27,0.0,0.0,-0.026901227614530066,0.006144814090019546,0
2025-01-28,0.0,0.0,0.013500320094658624,0.01290710764333669,0
2025-01-29,0.0,0.0,0.0007859826700404859,-0.0031198560655361085,0
2025-01-30,0.0,0.0,0.005995594291734463,-0.001260239445494804,0
2025-01-31,0.0,0.0,-0.010910544956014845,-0.008786912624307308,0
2025-02-03,0.0,0.0,0.004312253344884054,0.009036555202835528,0
2025-02-04,0.0,0.0,0.0020893634150547236,0.011260436149085118,0
2025-02-05,0.0,0.0,0.008416542331382226,0.009639339235751665,0
2025-02-06,0.0,0.0,0.004173147691490575,0.0042475728155340065,0
2025-02-07,0.0,0.0,-0.014224186784540405,-0.013637906967970737,0
2025-02-10,0.0,0.0,0.012551499473028471,0.0038503850385038785,0
2025-02-11,0.0,0.0,0.00013247539742633485,0.003859609095748784,0
2025-02-12,0.0,0.0,0.003879122750581887,0.01148765077541647,0
2025-02-13,0.0,0.0,0.009387016512101276,0.011170232838974892,0
2025-02-14,0.0,0.0,0.004873949579832004,0.00400182834115359,0
2025-02-18,0.0,0.0,0.003808143316422319,-0.0006670001667500314,0
2025-02-19,0.0,0.0,-0.0021090078628672737,0.0017639304083032492,0
2025-02-20,0.0,0.0,-0.003024006530369938,-0.0027843261002729047,0
2025-02-21,-0.007688432658492527,-0.007488432658492528,-0.02123411302778233,-0.0227720197629927,1
2025-02-24,0.0,0.0,-0.01110120366022227,-0.015173903159809043,0
2025-02-25,0.005595883745679964,0.005795883745679964,-0.00857461452685826,-0.011401278792080638,1
2025-02-26,0.0,0.0,-0.005022494570276037,-0.0018815587841639614,0
2025-02-27,-0.017618956561290998,-0.017418956561291,-0.024420666939523383,-0.03447011367803454,1
2025-02-28,0.0,0.0,0.015502637046507894,0.015925859276588072,0
2025-03-03,-0.008833415585084348,-0.008633415585084347,-0.01800047214353162,-0.027799499530810068,1
2025-03-04,0.0,0.0,-0.0006610974217201582,0.002569913796592216,0
2025-03-05,0.0,0.0,0.0031473017400369674,0.011708988311164958,0
2025-03-06,0.0,0.0,-0.020143482344477603,-0.011120338674066699,0
2025-03-07,0.0,0.0,0.0011645218526299406,0.00950406437310125,0
2025-03-10,0.001402848710011928,0.0016028487100119282,-0.04375831379443107,-0.02217395801013544,1
2025-03-11,0.0,0.0,0.008990030250095815,-0.0015878056525880924,0
2025-03-12,0.0,0.0,0.0111263805577273,-0.004674847650054326,0
2025-03-13,0.0,0.0,-0.016641957779123473,-0.016608923884514515,0
2025-03-14,0.0,0.0,0.017496921051513903,0.012517678846600377,0
2025-03-17,0.0,0.0,0.007011978797111684,0.006588686641229247,0
2025-03-18,0.0,0.0,-0.016081568367389276,-0.009991447821280364,0
2025-03-19,0.0,0.0,0.016681410337419544,0.008556867515362443,0
2025-03-20,0.0,0.0,-0.006898694841516395,0.0050327126321085824,0
2025-03-21,0.0,0.0,0.004672799716294307,0.014259196760040505,0
2025-03-24,0.0,0.0,0.017832063287722466,0.005616722024029075,0
2025-03-25,0.0,0.0,0.008327041659280221,0.004212539937727744,0
2025-03-26,0.0,0.0,-0.0226179493404548,-0.016087751371115178,0
2025-03-27,0.0,0.0,-0.004534047167007005,-0.0016376111606309918,0
2025-03-28,-0.0007840438563575745,-0.0005840438563575745,-0.02913227007132324,-0.02265480085867322,1
2025-03-31,0.0,0.0,-0.0005354465624330951,0.01515413924489084,0
2025-04-01,0.0,0.0,0.014957677059895147,0.011555745773592863,0
2025-04-02,0.0,0.0,-0.03891223106644426,0.021518064017849392,0
2025-04-03,0.0,0.0,-0.011445518453427006,-0.012553676277276327,0
2025-04-04,-0.007338479777509143,-0.0071384797775091435,-0.06175692793173182,-0.0353083489295658,1
2025-04-07,0.0,0.0,0.01577451444812894,0.036778740273087474,0
2025-04-08,-0.014347541194610703,-0.014147541194610702,-0.04528284288579032,-0.050438196092751575,1
2025-04-09,0.0,0.0,0.13828644001563117,0.12135139687657914,0
2025-04-10,0.030832606735785785,0.031032606735785784,-0.04907093507273741,-0.01633741952553136,1
2025-04-11,0.0,0.0,0.024662108802093963,0.02192735859664907,0
2025-04-14,0.0,0.0,0.0025286267946798002,-0.015028204796968425,0
2025-04-15,0.0,0.0,-0.006497926607233584,-0.001199459152963822,0
2025-04-16,0.0,0.0,-0.017178483783245935,-0.010801060062802015,0
2025-04-17,0.0,0.0,0.002474467989382223,-0.007044300825189587,0
2025-04-21,0.0,0.0,-0.023651377793734718,-0.01168336261780345,0
2025-04-22,0.0,0.0,0.042702826936336535,0.012898227063488532,0
2025-04-23,0.0,0.0,0.004298183741844541,-0.0076390859288036905,0
2025-04-24,0.0,0.0,0.0306169479621623,0.02381265334735372,0
2025-04-25,0.0,0.0,0.007270326674901018,0.011970790414801646,0
2025-04-28,0.0,0.0,-0.0010841575157402028,-0.00131069910999293,0
2025-04-29,0.0,0.0,0.0020081222279320077,0.011400131867196794,0
2025-04-30,0.0,0.0,0.01822867160931918,0.017853702395478788,0
2025-05-01,0.0,0.0,-0.006347757540555166,-0.0035787426821952684,0
2025-05-02,0.0,0.0,0.0207098121085596,0.004706704484728874,0
2025-05-05,0.0,0.0,-0.008774441626442031,0.0027445315724308195,0
2025-05-06,0.0,0.0,0.0029094360646266804,0.003857702894319859,0
2025-05-07,0.0,0.0,-0.005493375030861669,0.0025721871888484404,0
2025-05-08,0.0,0.0,0.009537207522188007,-0.0004912697275498701,0
2025-05-09,0.0,0.0,-0.00013299725398585593,-0.004569470227045458,0
2025-05-12,0.0,0.0,0.03870529934408684,0.0016962859227993565,0
2025-05-13,0.0,0.0,0.018508287292817505,0.012628643255558236,0
2025-05-14,0.0,0.0,0.0038164981208106408,0.0036960349865509112,0
2025-05-15,0.0,0.0,0.001968541928013101,0.005285371331216648,0
2025-05-16,0.0,0.0,-0.008763988674229894,0.0016325433104138476,0
2025-05-19,0.0,0.0,0.01515681473708752,0.015109676415681284,0
2025-05-20,0.0,0.0,-0.004938555185482807,0.0015400311856315074,0
2025-05-21,0.0,0.0,-0.01323484148968912,-0.006217676797024896,0
2025-05-22,0.0,0.0,0.0017740174672489228,0.0006619164427832391,0
2025-05-23,0.0,0.0,-0.010761476638060263,0.006045280335058578,0
2025-05-27,0.0,0.0,0.02553409135617901,0.00982272595175826,0
2025-05-28,0.0,0.0,0.013676820379037835,-0.006262208433873373,0
2025-05-29,0.0,0.0,-0.0204371274481977,-0.01215967168886456,0
2025-05-30,0.0,0.0,0.0016227180527383922,-0.0006352995533652761,0
2025-06-02,0.0,0.0,0.007251827421936863,0.011542030778748824,0
2025-06-03,0.0,0.0,0.009880325514600274,0.0071434028573611474,0
2025-06-04,0.0,0.0,0.0018770975142679003,0.0014393666786614023,0
2025-06-05,0.0,0.0,-0.00895155185465557,-0.010166358595194103,0
2025-06-06,0.0,0.0,0.013596348845646977,-0.00015094339622645503,0
2025-06-09,0.0,0.0,0.0005275155899697737,0.001056324744407311,0
2025-06-10,0.0,0.0,0.005460673734159371,0.005723214789992159,0
2025-06-11,0.0,0.0,-0.005112646777908902,-0.005993054777640894,0
2025-06-12,0.0,0.0,-0.002202394398012175,0.004839104483232548,0
2025-06-13,0.0,0.0,-0.005829418756013394,-0.001364463311097519,0
2025-06-16,0.0,0.0,0.006603666173289335,0.007106503298774713,0
2025-06-17,0.0,0.0,-0.004995852656185296,-0.004946305316808064,0
2025-06-18,0.0,0.0,0.0021790042210274585,-0.0020939445387663236,0
2025-06-20,0.0,0.0,-0.0026468920145191754,-0.010502386051929546,0
2025-06-23,0.0,0.0,0.015467627467516065,0.009320248286858845,0
2025-06-24,0.0,0.0,0.008325244530724918,0.005308349941328894,0
2025-06-25,0.0,0.0,0.001758673034914393,-0.0016603328044865195,0
2025-06-26,0.0,0.0,0.009701920056178759,0.005282046562988807,0
2025-06-27,0.0,0.0,0.002214575936161811,0.0015166465665314988,0
2025-06-30,0.0,0.0,0.007249949779944753,0.0006893298987773466,0
2025-07-01,0.0,0.0,-0.007614765392704226,-0.00502064649919054,0
2025-07-02,0.0,0.0,0.0065404852382344725,0.008495678921927707,0
2025-07-03,0.0,0.0,0.008839438051330362,0.005495498752666528,0
2025-07-07,0.0,0.0,-0.007214695669383375,-0.0026918629859806753,0
2025-07-08,0.0,0.0,0.0013591881116346016,-0.0018793595720841827,0
2025-07-09,0.0,0.0,0.005990408107863665,0.003192180060597183,0
2025-07-10,0.0,0.0,0.00048573381786787273,-0.0025857889349780727,0
2025-07-11,0.0,0.0,-0.0047291101001564195,0.0016266040122900893,0
2025-07-14,0.0,0.0,0.003938572719060396,0.004007292550407104,0
2025-07-15,0.0,0.0,0.00017995968902972947,-0.00630075858991519,0
2025-07-16,0.0,0.0,0.0014034330130627826,1.7944300890082587e-05,0
2025-07-17,0.0,0.0,0.01043912606008357,0.006773950754453306,0
2025-07-18,0.0,0.0,-0.0016359336379963008,-0.003303025998011133,0
2025-07-21,0.0,0.0,0.005040520081930566,0.0037182657581524836,0
2025-07-22,0.0,0.0,-0.0035620613879634444,-0.005404926457557968,0
2025-07-23,0.0,0.0,0.006064702011489009,0.002614076892982764,0
2025-07-24,0.0,0.0,0.0002298119077923655,-0.00021234052341945198,0
2025-07-25,0.0,0.0,0.002173874622223071,0.0025489883702407568,0
2025-07-28,0.0,0.0,0.003579994356659233,0.0007045478564131624,0
2025-07-29,0.0,0.0,-0.0022492839193773984,-0.00613217464433391,0
2025-07-30,0.0,0.0,0.010849081526620896,-0.000281600901122836,0
2025-07-31,-0.0063172283758750275,-0.006117228375875028,-0.018015506577228058,-0.016587182789709942,1
2025-08-01,0.0028970815536799367,0.0030970815536799368,-0.018737779670339405,-0.00885779217293281,1
2025-08-04,0.0,0.0,0.021554682657528357,0.009033181289687997,0
2025-08-05,0.0,0.0,-0.011912136927624495,-0.00905569606820067,0
2025-08-06,0.0,0.0,0.01748351963313266,0.011067348648215125,0
2025-08-07,0.0,0.0,0.0038732394366198797,-0.004198226249409576,0
2025-08-08,0.0,0.0,0.010163977551736147,0.0071873082654043685,0
2025-08-11,0.0,0.0,-0.005704037618349367,-0.0032017261480102865,0
2025-08-12,0.0,0.0,0.013863910181417971,0.008501982057166568,0
2025-08-13,0.0,0.0,-0.00032739171618023644,-0.004152652893129161,0
2025-08-14,0.0,0.0,-0.0024289360901588175,0.0027841184201424785,0
2025-08-15,0.0,0.0,-0.0034366635005612656,-0.0042428423594341735,0
2025-08-18,0.0,0.0,0.00043323051329147155,0.0011276108528206485,0
2025-08-19,-0.0006195649242072497,-0.00041956492420724967,-0.01598794408549986,-0.01233539790766669,1
2025-08-20,0.008038069320700258,0.008238069320700259,-0.004189550767497496,-0.004275684901377863,1
2025-08-21,0.0,0.0,-0.0028990631076544204,-0.0018959865331799053,0
2025-08-22,0.0,0.0,0.015211147750239462,0.012927904793950562,0
2025-08-25,0.0,0.0,-0.004016485051690388,-0.00014025245441784406,0
2025-08-26,0.0,0.0,0.0052424869376161976,0.004878648017829779,0
2025-08-27,0.0,0.0,-0.004395374391711782,0.0033240609527807052,0
2025-08-28,0.0,0.0,0.010213556174559102,0.005173224643361118,0
2025-08-29,0.0,0.0,-0.012069922308546088,-0.0074044426655993645,0
2025-09-02,0.0,0.0,-0.0045990731638815285,0.007678466444567267,0
2025-09-03,0.0,0.0,0.004567417909921323,0.00146988036470308,0
2025-09-04,0.0,0.0,0.011533397700342451,0.00786697971055128,0
2025-09-05,0.004909918964463001,0.0051099189644630005,-0.002308146194161975,-0.007631483746490142,1
2025-09-08,0.0,0.0,0.007010036702673528,0.0008644985044174991,0
2025-09-09,0.0,0.0,0.003420161680370404,0.001449100350199295,0
2025-09-10,0.0,0.0,0.0006369426751593465,-0.005207797992256791,0
2025-09-11,0.0,0.0,0.005264334990624064,0.001440230436869916,0
2025-09-12,0.0,0.0,0.003953245597521748,0.0027690414330643343,0
2025-09-15,0.0,0.0,0.008369698622664679,0.00550608388280871,0
2025-09-16,0.0,0.0,6.761896712048632e-05,-0.0024130541165354735,0
2025-09-17,0.009039211413649028,0.009239211413649029,0.0016903598776178974,-0.0018609372356623854,1
2025-09-18,0.0,0.0,0.006345027759496524,0.000689179875947854,0
2025-09-19,0.0,0.0,0.00560073782174908,0.0033817152997506206,0
2025-09-22,0.0,0.0,0.004252196968433708,0.00746143808344768,0
2025-09-23,0.0,0.0,-0.006376195536663132,-0.006970798678552992,0
2025-09-24,0.0,0.0,-0.0032252673796790976,-0.00580406284399082,0
2025-09-25,0.0,0.0,-0.005534896977216097,0.002161431948666026,0
2025-09-26,0.0,0.0,0.005026226944581991,0.0027256666947084174,0
2025-09-29,0.0,0.0,0.0037574435964102815,-0.0006342741733571522,0
2025-09-30,0.0,0.0,0.000601614331790401,0.00324181608542351,0
2025-10-01,0.0,0.0,0.007832985386221347,0.010181355392936853,0
2025-10-02,0.0,0.0,0.0043252021742010704,-0.00219088722696259,0
2025-10-03,0.0,0.0,-0.005082088936556262,-0.005490428847010009,0
2025-10-06,0.0,0.0,0.006302137751463599,-0.0011997699071411017,0
2025-10-07,0.0,0.0,-0.004235707104833786,-0.007421759548126516,0
2025-10-08,0.0,0.0,0.013952501481711677,0.009960192266398105,0
2025-10-09,0.0,0.0,-0.0017134322511140887,-0.001241250735919408,0
2025-10-10,-0.02581170145311864,-0.02561170145311864,-0.03540058435498983,-0.03608930323846904,1
2025-10-13,0.0,0.0,0.020137982472496763,0.003885405549626464,0
2025-10-14,0.0,0.0,-0.005566540934846431,0.0045186541465791485,0
2025-10-15,0.0,0.0,0.006834207800019865,-0.0029635270939222247,0
2025-10-16,0.006432066430179773,0.006632066430179773,-0.007169529499626459,-0.008461271504354606,1
2025-10-17,0.0,0.0,0.011300001671597837,0.009969060958273879,0
2025-10-20,0.0,0.0,0.011686143572620988,0.007280034258984713,0
2025-10-21,0.0,0.0,-0.002957226415710834,-0.00042508665227913855,0
2025-10-22,0.006379453030719718,0.006579453030719717,-0.009738303973781282,-0.008725974918961432,1
2025-10-23,0.0,0.0,0.012316252396132432,0.009373295200939102,0
2025-10-24,0.0,0.0,0.009431957498978294,0.001801977304826341,0
2025-10-27,0.0,0.0,0.018493328151315103,0.005716390187664233,0
2025-10-28,0.0,0.0,0.0072661939135687525,0.004061171394123875,0
2025-10-29,0.0,0.0,0.001894208457640767,0.000283201434887248,0
2025-10-30,0.0,0.0,-0.002252997431898107,-0.009680940253412817,0
2025-10-31,0.0,0.0,-0.0066795098534613295,-0.008042007663560113,0
2025-11-03,0.0,0.0,0.0011604800890232525,-0.00477082710081711,0
2025-11-04,0.0,0.0,-0.02316682015942062,-0.006465793864715685,0
2025-11-05,0.0,0.0,0.011633479087761467,0.007857847337871204,0
2025-11-06,-0.000372609293904058,-0.000172609293904058,-0.0144401802981875,-0.016275591437623693,1
2025-11-07,0.0,0.0,-0.0019727403156385437,0.0023507750982230124,0
2025-11-10,0.0,0.0,0.019063954913011605,0.006963743294771563,0
2025-11-11,0.0,0.0,-0.002164085793979087,0.0015147364519714213,0
2025-11-12,0.0,0.0,-0.004610663967741457,-0.0060495486844633906,0
2025-11-13,0.002034088541181789,0.002234088541181789,-0.017882504841833513,-0.014800660685947431,1
2025-11-14,0.0,0.0,0.004667061066193412,0.015528312901342822,0
2025-11-17,0.0,0.0,-0.014083355142632814,-0.004354280059376547,0
2025-11-18,0.0,0.0,-0.011812525922853645,-0.005520162769754311,0
2025-11-19,0.0,0.0,0.023353424105568843,0.0045405061383085865,0
2025-11-20,-0.0233397455385961,-0.0231397455385961,-0.03727400990911167,-0.04242830515679674,1
2025-11-21,0.0,0.0,0.00892948433932017,0.004425757911042272,0
2025-11-24,0.0,0.0,0.02329155828801155,0.01659723155489856,0
2025-11-25,0.0,0.0,0.0066848229759841615,0.008916173717088416,0
2025-11-26,0.0,0.0,0.008689949171995615,0.002873422474735099,0
2025-11-28,0.0,0.0,0.006355656697009104,0.005096492509454542,0
2025-12-01,0.0,0.0,-0.0027943338017476504,0.005850431041507065,0
2025-12-02,0.0,0.0,0.008665651624607307,0.004186549575436738,0
2025-12-03,0.0,0.0,0.00032116647664315323,0.006294180304057262,0
2025-12-04,0.0,0.0,0.0008829242450998365,-0.003184356647944364,0
2025-12-05,0.0,0.0,0.0032559183935330083,0.0017617476536724297,0
2025-12-08,0.0,0.0,-0.00015986954645008655,-0.004671481640917796,0
2025-12-09,0.0,0.0,-0.0023685262467819657,0.0032744257716568193,0
2025-12-10,0.0,0.0,0.001316336305734911,0.006027089845315414,0
2025-12-11,0.0,0.0,-0.0011684673869548634,0.0028213266647429958,0
2025-12-12,0.00258582985657283,0.00278582985657283,-0.01797650716323196,-0.01359953703703709,1
2025-12-15,0.0,0.0,-0.007004216531171559,-0.012662321910830165,0
2025-12-16,0.0,0.0,0.00276067726731255,0.005737677966658916,0
2025-12-17,-0.004009622510958399,-0.003809622510958399,-0.012198167783805114,-0.02063419567415914,1
2025-12-18,0.0,0.0,0.010341324085005432,-0.0011315185306657316,0
2025-12-19,0.0,0.0,0.01610890341226301,0.00833401421684754,0
2025-12-22,0.0,0.0,0.0018261445724720993,-0.003444113623561562,0
2025-12-23,0.0,0.0,0.003919860627177751,0.00632481397605944,0
2025-12-24,0.0,0.0,0.0010765646340482604,0.003119021206128725,0
2025-12-26,0.0,0.0,0.00028891528361851826,-0.0012646879902666885,0
2025-12-29,0.0,0.0,-0.005204749679075804,0.0012256087727786635,0
2025-12-30,0.0,0.0,-0.0032202264546344894,-0.0006614610221994388,0
2025-12-31,0.0,0.0,-0.005987442552916167,-0.008617768094892342,0
2026-01-02,0.0018261365956510956,0.0020261365956510957,-0.0009279458209877633,-0.01119246524529871,1
2026-01-05,0.0,0.0,0.0060587593084455715,-0.0021475166311438754,0
2026-01-06,0.0,0.0,0.010495649393707396,0.007097524344750639,0
2026-01-07,0.0,0.0,0.0005797512150813589,0.0015729327170006524,0
2026-01-08,0.0,0.0,-0.00664797757308766,-0.004108951414859563,0
2026-01-09,0.0,0.0,0.010917593936461856,0.00850485186913641,0
2026-01-12,0.0,0.0,-0.002313079266833662,0.007809612572512226,0
2026-01-13,0.0,0.0,0.0012471619071985351,-0.0016420361247947435,0
2026-01-14,0.0,0.0,-0.011801341424465206,-0.004323090768835303,0
2026-01-15,0.0,0.0,0.006350899306734048,-0.007692307692307776,0
2026-01-16,0.0,0.0,-0.002591611266339222,-0.007106314948041592,0
2026-01-20,0.0,0.0,-0.019571066165147366,-0.004045665241675267,0
2026-01-21,0.0,0.0,0.015152634776754104,0.011173642673142137,0
2026-01-22,0.0,0.0,0.0038054181713771396,-0.002554832489756631,0
2026-01-23,0.0,0.0,0.0016759326403996688,0.004824681716231183,0
2026-01-26,0.0,0.0,0.008413906272623395,0.0036103400137994512,0
2026-01-27,0.0,0.0,0.011901343288344135,0.003413047971887906,0
2026-01-28,0.0,0.0,-0.0016711862269028765,-0.0035250055078210885,0
2026-01-29,0.008869369511842895,0.009069369511842895,-0.008543476201004374,-0.005184541215521921,1
2026-01-30,0.0,0.0,-0.012057945547547022,-0.006137028335810535,0
2026-02-02,0.0,0.0,0.013377885979620752,0.012025214158719821,0
2026-02-03,-0.00271179580752392,-0.00251179580752392,-0.021792653580733012,-0.01874900525226797,1
2026-02-04,0.002489587691137696,0.002689587691137696,-0.010604384880619322,-0.015072680563233631,1
2026-02-05,0.0,0.0,-0.028044450289321454,-0.005298145649022978,0
2026-02-06,0.0,0.0,0.03091702465920232,0.015761675469434522,0
2026-02-09,0.0,0.0,0.007858385011648261,0.011466899298811839,0
2026-02-10,0.0,0.0,-0.0017905685869158416,-0.006208303199226273,0
2026-02-11,0.0,0.0,-0.0008642760465077393,-0.005305168889321532,0
2026-02-12,-0.0037316304904832175,-0.0035316304904832174,-0.02087481638648614,-0.02288884189292517,1
2026-02-13,0.0,0.0,0.0012335183610874267,0.0024815548856653713,0
2026-02-17,0.0,0.0,-0.0009324898027137651,0.004888238980572224,0
2026-02-18,0.0,0.0,0.008865504985169803,0.006111840029230375,0
2026-02-19,0.0,0.0,-0.0017508795692174894,0.001094872347837672,0
2026-02-20,0.0,0.0,0.007280549350541898,0.014480437245883993,0
2026-02-23,0.0,0.0,-0.01020123203285428,-0.008564057335498476,0
2026-02-24,0.0,0.0,0.010389351744282571,0.008997343957503512,0
2026-02-25,0.0,0.0,0.009937746386333934,0.009180617605184294,0
2026-02-26,0.007915455013983918,0.008115455013983919,-0.012978935841435169,-0.010315307266199891,1
2026-02-27,0.0,0.0,-0.002455221052284684,0.007346844008093045,0
2026-03-02,0.0,0.0,0.0007598533152730624,0.015412617306215237,0
2026-03-03,0.0,0.0,-0.007246137594084212,0.00880385021716168,0
2026-03-04,0.0,0.0,0.018732064178235808,0.010907706567796716,0
2026-03-05,0.0,0.0,-0.005184127599653032,0.0024860059269016244,0
2026-03-06,0.0,0.0,-0.01761984447288123,-0.0009328513601305488,0
2026-03-09,0.0,0.0,0.010521042084168375,0.022777567419748346,0
2026-03-10,0.0,0.0,0.005585853577920963,-1.6453321925680164e-05,0
2026-03-11,0.0,0.0,-0.009055351038653625,-0.0020691353969948256,0
2026-03-12,0.0,0.0,-0.010381942716884751,-0.009124693078505497,0
2026-03-13,0.0,0.0,-0.005480048934993542,-0.010021176195954884,0
2026-03-16,0.0,0.0,0.011408061472094833,0.00044997000199975545,0
2026-03-17,0.0,0.0,0.004948268106162779,0.0002818582750272469,0
2026-03-18,0.0,0.0,-0.014904340329586319,-0.010956125621373602,0
2026-03-19,0.0,0.0,-0.0001346370689511156,0.005954097470780795,0
2026-03-20,0.004949981852762054,0.005149981852762053,-0.011765497971756078,-0.01522688051974419,1
2026-03-23,0.0,0.0,0.0040255825044284155,-0.004267425320056861,0
2026-03-24,0.0,0.0,-0.0013800216630323048,-0.0014192643764640023,0
2026-03-25,0.0,0.0,-0.0035843511644895187,-0.0022405540279050173,0
2026-03-26,0.0,0.0,-0.01836129296235678,-0.01512186749055966,0
2026-03-27,0.0,0.0,-0.027197415724482865,-0.014418107601478436,0
2026-03-30,0.0,0.0,-0.0073197293485440795,-0.015915259614367794,0
2026-03-31,0.0,0.0,0.04345089293743154,0.02284286448457351,0
2026-04-01,0.0,0.0,0.006342749788862179,0.00484969388457035,0
2026-04-02,0.0,0.0,0.0015928203195916257,0.019182187222328784,0
2026-04-06,0.0,0.0,0.0038303693570451713,0.003872200330928166,0
2026-04-07,0.0,0.0,0.03088375579176894,0.005037224233317428,0
2026-04-08,0.0,0.0,-0.0010740783581472124,-0.004304184258513866,0
2026-04-09,0.0,0.0,0.008072520346721346,0.007030515075999055,0
2026-04-10,0.0,0.0,0.005070561207745294,-0.0012421548117154124,0
2026-04-13,0.0,0.0,0.00973077111463061,0.0131702434862504,0
2026-04-14,0.0,0.0,0.016929420325005884,0.01345812776111699,0
2026-04-15,0.0,0.0,0.015009858169560575,0.013225662872766497,0
2026-04-16,0.0,0.0,0.0029450466821230314,0.001971183179236835,0
2026-04-17,0.0,0.0,0.013635511683118828,0.005049644511222251,0
2026-04-20,0.0,0.0,-0.0015407491871735068,-0.0019288932781926782,0
2026-04-21,0.0,0.0,-0.0007409292496675102,-0.006292315047577768,0
2026-04-22,0.0,0.0,0.012293626156388626,0.0076290086903023635,0
2026-04-23,0.0,0.0,-0.00044244412235883157,-0.003259123249942597,0
2026-04-24,0.0,0.0,0.012668661090420752,0.008306631638092199,0
2026-04-27,0.0,0.0,0.002788412262984874,0.0012511305396443184,0
2026-04-28,0.0,0.0,-0.008913138236310791,0.00021295690664890898,0
2026-04-29,0.0,0.0,0.01135915557038425,0.004463811244553195,0
2026-04-30,0.0,0.0,0.0015296834465488018,0.0035920943864131694,0
2026-05-01,0.0,0.0,0.00847444811653908,0.007501942734174261,0
2026-05-04,0.0,0.0,-0.002301387825493717,-0.0026383659917588176,0
2026-05-05,0.0,0.0,0.022693452380952328,0.005383798454186017,0
2026-05-06,0.0,0.0,0.01056384139687161,0.011369914798336822,0
2026-05-07,0.0,0.0,0.00031677009690289637,-0.0023543598725199733,0
2026-05-08,0.0,0.0,0.02485857815266357,0.016158989598811457,0
2026-05-11,0.0,0.0,0.0018816011235955887,0.004124669181823304,0
2026-05-12,0.014802137993258335,0.015002137993258335,-0.011831249543520439,-0.0013837508118946795,1
2026-05-13,0.0,0.0,0.018995602213079943,0.0066905177756493295,0
2026-05-14,0.0,0.0,0.001990839354578222,0.007234614200554157,0
2026-05-15,0.0,0.0,-0.018910131717890355,-0.0017038893739262928,0
2026-05-18,0.008427572634945401,0.008627572634945402,0.0006231323731429317,-0.008179582314416511,1
2026-05-19,0.0,0.0,-0.00607175712971475,0.002457809976993852,0
2026-05-20,0.0,0.0,0.00852960442001538,0.011144351968693789,0
2026-05-21,0.0,0.0,0.012331662548535016,0.007785723352938589,0
2026-05-22,0.0,0.0,-0.002334640987057046,-0.0007380896012925131,0
2026-05-26,0.0,0.0,0.021557087137045627,0.005950741087663136,0
2026-05-27,0.0,0.0,-0.0039864245343697036,-0.004796987557301957,0
2026-05-28,0.0,0.0,0.010638663290359895,0.00804407109478844,0
2026-05-29,0.0,0.0,0.0028413725596825312,0.0006369944703457087,0
2026-06-01,0.0,0.0,0.0035653765335863508,0.007733637251709613,0
2026-06-02,0.0,0.0,0.0078078564867347655,0.004997440732758651,0
2026-06-03,0.0,0.0,-0.010428115701149987,-0.004148211585553452,0
2026-06-04,0.0,0.0,-0.003928048978707244,0.006975036710719529,0
2026-06-05,-0.019086025260648863,-0.018886025260648864,-0.047703228262938935,-0.034243760786784705,1
2026-06-08,0.0,0.0,0.02157646722833073,-0.0024240397876873487,0
2026-06-09,-0.0015192949719621484,-0.0013192949719621483,-0.012216770802756516,-0.02086503084456004,1
2026-06-10,0.0,0.0,-0.0239715850396931,-0.011358777755608007,0
2026-06-11,0.0,0.0,0.04298783581981347,0.02549729010853863,0
2026-06-12,0.0,0.0,0.0053796324612860325,0.0051978093950753035,0
2026-06-15,0.0,0.0,0.02718285516764607,0.00799349681614947,0
2026-06-16,0.0,0.0,-0.016783594244255684,-0.01669248905355336,0
2026-06-17,0.0,0.0,-0.0006999878018945083,-0.017247242209496916,0
2026-06-18,0.0,0.0,0.013560889400353382,0.004639175257731942,0
2026-06-22,0.0,0.0,-0.0049450649711385575,-0.005485027357753025,0
2026-06-23,0.0,0.0,-0.02734422755613508,-0.0029200547684914424,0
2026-06-24,0.0,0.0,0.01187084520417847,-0.0064442176775654225,0
2026-06-25,0.011490537738542117,0.011690537738542117,-0.013263587931653165,-0.01347293015566875,1
2026-06-26,0.0,0.0,-0.012490733358510586,-0.0008626419470253444,0
2026-06-29,0.0,0.0,0.025495750708215192,0.014131850586142747,0
2026-06-30,0.0,0.0,0.01697513812154683,0.016874257781214652,0
2026-07-01,0.0,0.0,-0.01635225250920147,-0.005430683360989619,0
2026-07-02,0.006273900718800385,0.006473900718800385,-0.013848809112875338,-0.017883072852063142,1
2026-07-06,0.0,0.0,0.008568788328526145,0.004014279166030255,0
2026-07-07,0.0,0.0,-0.01840297637226862,-0.006637075206183396,0
2026-07-08,0.0,0.0,0.007292489883798714,0.00920632668983612,0
2026-07-09,0.0,0.0,0.01502302594631022,0.006815530466498743,0
2026-07-10,0.0,0.0,0.00464768860486342,0.006674066879422735,0
2026-07-13,0.0,0.0,-0.021685254027261514,-0.00835980605249953,0
2026-07-14,0.0,0.0,0.016240940116811098,-0.0007081169642608742,0
2026-07-15,0.0,0.0,-0.006522871110249406,-0.008440975340194834,0
2026-07-16,0.0,0.0,-0.020198363517015205,-0.008595384896279534,0
2026-07-17,0.0,0.0,-0.01321686181337045,0.005320610135184145,0
2026-07-20,0.0,0.0,0.0032006920415226237,-0.008687478637347645,0
2026-07-21,0.0,0.0,0.018395562070650406,0.00339669105679552,0
2026-07-22,0.0,0.0,-0.005376647568513526,0.0024587135101332702,0
2026-07-23,0.0,0.0,-0.015990124998226496,-0.003901132912030092,0
2026-07-24,0.0,0.0,-0.01389970297315224,-0.008922234614214708,0
2026-07-27,0.00859094258583235,0.008790942585832351,-0.0038874104401227516,-0.013662387231089479,1
2026-07-28,0.0,0.0,-0.001998410548742391,-0.0010943022344468423,0
2026-07-29,0.0,0.0,-0.020312408072012622,-0.020392151057357033,0
2026-07-30,0.0,0.0,0.03334484363505319,0.013026853992530674,0
2026-07-31,0.0,0.0,-0.005535537862497719,-0.005952810969354627,0
2026-08-03,0.0,0.0,0.025318859847765385,0.01710010169984022,0
2026-08-04,0.0,0.0,0.029880307779994286,0.022156009941256327,0
2026-08-05,0.0,0.0,-0.008661123178881236,-0.012323580034423465,0
2026-08-06,0.0,0.0,0.0006838704274887419,0.0053881432711515576,0
2026-08-07,0.0,0.0,0.008688981868898216,0.003999166840241708,0
2026-08-10,0.0,0.0,-0.004517511718263867,-0.002104126579825283,0
2026-08-11,0.0,0.0,-0.0013511809221253834,-0.006691645121597034,0
2026-08-12,0.0,0.0,0.004993115342355248,-0.004648731913957205,0
2026-08-13,0.0,0.0,0.013437958426748553,0.009542853202785695,0
2026-08-14,0.0,0.0,-0.0019664340630077826,-0.0031905755307398698,0
2026-08-17,0.0,0.0,-0.0012177601423000173,-0.004202196602769659,0
2026-08-18,0.0,0.0,-0.018877746725848077,-0.003748906568917465,0
2026-08-19,0.0,0.0,0.0036024463123796036,-0.0058024125820734795,0
2026-08-20,0.0,0.0,-0.011269408425621963,-0.001657093906669238,0
2026-08-21,0.0,0.0,0.005051642135479817,-0.002502691441913729,0
2026-08-24,0.0,0.0,-0.011284564228211336,-0.004706479159033772,0
2026-08-25,0.0,0.0,0.004290630000424844,-0.0007030173504681825,0
2026-08-26,0.0,0.0,0.014872113025577338,0.004178371282167248,0
2026-08-27,0.0,0.0,-0.0014137896732223654,0.005830415800705868,0
2026-08-28,0.0,0.0,-0.003484660869565226,-0.004598882929947035,0
2026-08-31,0.0,0.0,0.0006346986661276421,0.002223247619447255,0
2026-09-01,0.0,0.0,-0.012376308078694165,0.0005371859935821011,0
2026-09-02,0.0,0.0,0.0025007420568134986,0.003125441945976304,0
2026-09-03,0.0,0.0,0.010470687711386706,0.009594147851164081,0
2026-09-04,0.0,0.0,0.000655481639540989,-0.0005352091138466353,0
2026-09-08,0.0,0.0,-0.0001672473867595503,-0.0035358138128390726,0
2026-09-09,0.0,0.0,-0.0012127463826703266,-6.97934115019283e-05,0
2026-09-10,0.0,0.0,-0.013413350825529413,0.001611193555225876,0
2026-09-11,0.0,0.0,0.011304016187880794,-0.001117818019226391,0
2026-09-14,0.0,0.0,-0.007392745737106354,0.008438488607684924,0
2026-09-15,0.0,0.0,-0.006138626418923154,-0.006010158013543987,0
2026-09-16,0.0,0.0,0.00597094075993021,-0.004632768361581885,0
2026-09-17,0.0,0.0,0.008923688439094635,0.0013548432153083212,0
2026-09-18,0.0,0.0,0.008744172530808392,0.0036448117079141973,0
2026-09-21,0.0,0.0,0.029000761720102464,0.018450590061685146,0
2026-09-22,0.0,0.0,0.007173717008304381,0.008745175308375375,0
2026-09-23,0.0,0.0,-0.01004917682274975,-0.007711153058355791,0
2026-09-24,0.0,0.0,0.0003914686825055025,0.007889414910327908,0
2026-09-25,0.0,0.0,0.004601330472682186,0.0022481590673504304,0
